Time,ECG
2021-12-27 15:57:24.251993,254
2021-12-27 15:57:24.252019,158
2021-12-27 15:57:24.252028,191
2021-12-27 15:57:24.252035,196
2021-12-27 15:57:24.252043,144
2021-12-27 15:57:24.252051,142
2021-12-27 15:57:24.252058,147
2021-12-27 15:57:24.252065,123
2021-12-27 15:57:24.252073,105
2021-12-27 15:57:24.252080,93
2021-12-27 15:57:24.252087,77
2021-12-27 15:57:24.252094,67
2021-12-27 15:57:24.252101,63
2021-12-27 15:57:24.252108,51
2021-12-27 15:57:24.252116,39
2021-12-27 15:57:24.252124,32
2021-12-27 15:57:24.252131,25
2021-12-27 15:57:24.252138,23
2021-12-27 15:57:24.252145,23
2021-12-27 15:57:24.252152,32
2021-12-27 15:57:24.252159,44
2021-12-27 15:57:24.252165,53
2021-12-27 15:57:24.252172,60
2021-12-27 15:57:24.252178,74
2021-12-27 15:57:24.252185,88
2021-12-27 15:57:24.252191,98
2021-12-27 15:57:24.252199,107
2021-12-27 15:57:24.252205,116
2021-12-27 15:57:24.252212,119
2021-12-27 15:57:24.252219,128
2021-12-27 15:57:24.495703,142
2021-12-27 15:57:24.495724,142
2021-12-27 15:57:24.495732,142
2021-12-27 15:57:24.495738,137
2021-12-27 15:57:24.495745,130
2021-12-27 15:57:24.495752,123
2021-12-27 15:57:24.495760,119
2021-12-27 15:57:24.495766,119
2021-12-27 15:57:24.495772,116
2021-12-27 15:57:24.495779,107
2021-12-27 15:57:24.495785,102
2021-12-27 15:57:24.495792,100
2021-12-27 15:57:24.495798,100
2021-12-27 15:57:24.495805,100
2021-12-27 15:57:24.495811,102
2021-12-27 15:57:24.495818,100
2021-12-27 15:57:24.495824,100
2021-12-27 15:57:24.495831,105
2021-12-27 15:57:24.495838,105
2021-12-27 15:57:24.495844,107
2021-12-27 15:57:24.495851,107
2021-12-27 15:57:24.495857,105
2021-12-27 15:57:24.495863,107
2021-12-27 15:57:24.495870,109
2021-12-27 15:57:24.495876,107
2021-12-27 15:57:24.495883,107
2021-12-27 15:57:24.495889,109
2021-12-27 15:57:24.495896,109
2021-12-27 15:57:24.495902,102
2021-12-27 15:57:24.495911,98
2021-12-27 15:57:24.738927,100
2021-12-27 15:57:24.738947,105
2021-12-27 15:57:24.738955,105
2021-12-27 15:57:24.738962,100
2021-12-27 15:57:24.738968,81
2021-12-27 15:57:24.738975,63
2021-12-27 15:57:24.738981,63
2021-12-27 15:57:24.738987,70
2021-12-27 15:57:24.738994,70
2021-12-27 15:57:24.739000,72
2021-12-27 15:57:24.739006,86
2021-12-27 15:57:24.739013,91
2021-12-27 15:57:24.739019,81
2021-12-27 15:57:24.739029,77
2021-12-27 15:57:24.739036,81
2021-12-27 15:57:24.739043,84
2021-12-27 15:57:24.739049,79
2021-12-27 15:57:24.739056,79
2021-12-27 15:57:24.739062,84
2021-12-27 15:57:24.739068,105
2021-12-27 15:57:24.739075,165
2021-12-27 15:57:24.739081,186
2021-12-27 15:57:24.739088,-53
2021-12-27 15:57:24.739094,-674
2021-12-27 15:57:24.739100,-1333
2021-12-27 15:57:24.739107,-1184
2021-12-27 15:57:24.739113,-170
2021-12-27 15:57:24.739120,390
2021-12-27 15:57:24.739126,135
2021-12-27 15:57:24.739134,70
2021-12-27 15:57:25.128100,256
2021-12-27 15:57:25.128120,219
2021-12-27 15:57:25.128128,144
2021-12-27 15:57:25.128134,186
2021-12-27 15:57:25.128141,182
2021-12-27 15:57:25.128147,140
2021-12-27 15:57:25.128154,142
2021-12-27 15:57:25.128160,140
2021-12-27 15:57:25.128167,116
2021-12-27 15:57:25.128173,100
2021-12-27 15:57:25.128180,93
2021-12-27 15:57:25.128186,81
2021-12-27 15:57:25.128192,70
2021-12-27 15:57:25.128199,60
2021-12-27 15:57:25.128205,49
2021-12-27 15:57:25.128212,30
2021-12-27 15:57:25.128218,23
2021-12-27 15:57:25.128228,25
2021-12-27 15:57:25.128235,30
2021-12-27 15:57:25.128241,28
2021-12-27 15:57:25.128248,32
2021-12-27 15:57:25.128254,46
2021-12-27 15:57:25.128261,58
2021-12-27 15:57:25.128267,65
2021-12-27 15:57:25.128274,74
2021-12-27 15:57:25.128280,79
2021-12-27 15:57:25.128287,81
2021-12-27 15:57:25.128293,93
2021-12-27 15:57:25.128300,102
2021-12-27 15:57:25.128306,105
2021-12-27 15:57:25.275160,116
2021-12-27 15:57:25.275189,130
2021-12-27 15:57:25.275201,135
2021-12-27 15:57:25.275211,128
2021-12-27 15:57:25.275221,121
2021-12-27 15:57:25.275231,116
2021-12-27 15:57:25.275241,114
2021-12-27 15:57:25.275258,114
2021-12-27 15:57:25.275269,109
2021-12-27 15:57:25.275278,105
2021-12-27 15:57:25.275288,105
2021-12-27 15:57:25.275298,100
2021-12-27 15:57:25.275308,98
2021-12-27 15:57:25.275318,100
2021-12-27 15:57:25.275327,105
2021-12-27 15:57:25.275337,105
2021-12-27 15:57:25.275347,98
2021-12-27 15:57:25.275357,98
2021-12-27 15:57:25.275367,105
2021-12-27 15:57:25.275376,109
2021-12-27 15:57:25.275386,107
2021-12-27 15:57:25.275396,105
2021-12-27 15:57:25.275406,107
2021-12-27 15:57:25.275416,107
2021-12-27 15:57:25.275426,112
2021-12-27 15:57:25.275435,116
2021-12-27 15:57:25.275445,112
2021-12-27 15:57:25.275455,112
2021-12-27 15:57:25.275465,116
2021-12-27 15:57:25.275476,123
2021-12-27 15:57:25.518959,119
2021-12-27 15:57:25.518989,107
2021-12-27 15:57:25.519001,109
2021-12-27 15:57:25.519011,112
2021-12-27 15:57:25.519020,95
2021-12-27 15:57:25.519030,74
2021-12-27 15:57:25.519040,65
2021-12-27 15:57:25.519050,70
2021-12-27 15:57:25.519060,81
2021-12-27 15:57:25.519069,84
2021-12-27 15:57:25.519079,88
2021-12-27 15:57:25.519089,95
2021-12-27 15:57:25.519099,102
2021-12-27 15:57:25.519108,107
2021-12-27 15:57:25.519118,107
2021-12-27 15:57:25.519128,109
2021-12-27 15:57:25.519137,109
2021-12-27 15:57:25.519147,107
2021-12-27 15:57:25.519157,105
2021-12-27 15:57:25.519167,105
2021-12-27 15:57:25.519177,128
2021-12-27 15:57:25.519187,179
2021-12-27 15:57:25.519196,172
2021-12-27 15:57:25.519206,-77
2021-12-27 15:57:25.519256,-653
2021-12-27 15:57:25.519266,-1202
2021-12-27 15:57:25.519276,-964
2021-12-27 15:57:25.519286,-4
2021-12-27 15:57:25.519296,425
2021-12-27 15:57:25.519306,135
2021-12-27 15:57:25.665807,81
2021-12-27 15:57:25.665836,242
2021-12-27 15:57:25.665848,196
2021-12-27 15:57:25.665858,142
2021-12-27 15:57:25.665867,175
2021-12-27 15:57:25.665877,158
2021-12-27 15:57:25.665887,123
2021-12-27 15:57:25.665896,128
2021-12-27 15:57:25.665906,119
2021-12-27 15:57:25.665916,91
2021-12-27 15:57:25.665925,77
2021-12-27 15:57:25.665935,67
2021-12-27 15:57:25.665945,53
2021-12-27 15:57:25.665955,37
2021-12-27 15:57:25.665964,28
2021-12-27 15:57:25.665974,21
2021-12-27 15:57:25.665983,16
2021-12-27 15:57:25.665993,11
2021-12-27 15:57:25.666002,9
2021-12-27 15:57:25.666012,9
2021-12-27 15:57:25.666022,16
2021-12-27 15:57:25.666031,23
2021-12-27 15:57:25.666044,30
2021-12-27 15:57:25.666054,42
2021-12-27 15:57:25.666064,51
2021-12-27 15:57:25.666073,53
2021-12-27 15:57:25.666083,58
2021-12-27 15:57:25.666093,67
2021-12-27 15:57:25.666102,79
2021-12-27 15:57:25.666112,88
2021-12-27 15:57:25.908469,100
2021-12-27 15:57:25.908490,116
2021-12-27 15:57:25.908498,126
2021-12-27 15:57:25.908505,126
2021-12-27 15:57:25.908511,123
2021-12-27 15:57:25.908518,121
2021-12-27 15:57:25.908524,119
2021-12-27 15:57:25.908530,114
2021-12-27 15:57:25.908537,107
2021-12-27 15:57:25.908543,102
2021-12-27 15:57:25.908549,102
2021-12-27 15:57:25.908556,105
2021-12-27 15:57:25.908562,105
2021-12-27 15:57:25.908569,100
2021-12-27 15:57:25.908575,98
2021-12-27 15:57:25.908581,95
2021-12-27 15:57:25.908588,93
2021-12-27 15:57:25.908594,95
2021-12-27 15:57:25.908600,102
2021-12-27 15:57:25.908607,105
2021-12-27 15:57:25.908613,107
2021-12-27 15:57:25.908619,109
2021-12-27 15:57:25.908626,109
2021-12-27 15:57:25.908632,107
2021-12-27 15:57:25.908645,112
2021-12-27 15:57:25.908651,114
2021-12-27 15:57:25.908658,109
2021-12-27 15:57:25.908696,109
2021-12-27 15:57:25.908702,114
2021-12-27 15:57:25.908709,112
2021-12-27 15:57:26.153018,109
2021-12-27 15:57:26.153048,116
2021-12-27 15:57:26.153060,123
2021-12-27 15:57:26.153070,116
2021-12-27 15:57:26.153079,102
2021-12-27 15:57:26.153089,79
2021-12-27 15:57:26.153099,63
2021-12-27 15:57:26.153109,70
2021-12-27 15:57:26.153118,81
2021-12-27 15:57:26.153128,84
2021-12-27 15:57:26.153138,91
2021-12-27 15:57:26.153148,98
2021-12-27 15:57:26.153157,100
2021-12-27 15:57:26.153167,98
2021-12-27 15:57:26.153177,95
2021-12-27 15:57:26.153186,88
2021-12-27 15:57:26.153196,86
2021-12-27 15:57:26.153206,86
2021-12-27 15:57:26.153215,88
2021-12-27 15:57:26.153225,100
2021-12-27 15:57:26.153235,142
2021-12-27 15:57:26.153244,179
2021-12-27 15:57:26.153254,56
2021-12-27 15:57:26.153264,-399
2021-12-27 15:57:26.153274,-1065
2021-12-27 15:57:26.153283,-1275
2021-12-27 15:57:26.153293,-523
2021-12-27 15:57:26.153303,287
2021-12-27 15:57:26.153312,240
2021-12-27 15:57:26.153322,35
2021-12-27 15:57:26.348118,182
2021-12-27 15:57:26.348138,233
2021-12-27 15:57:26.348146,149
2021-12-27 15:57:26.348153,156
2021-12-27 15:57:26.348159,168
2021-12-27 15:57:26.348165,128
2021-12-27 15:57:26.348172,116
2021-12-27 15:57:26.348178,119
2021-12-27 15:57:26.348184,102
2021-12-27 15:57:26.348191,86
2021-12-27 15:57:26.348197,79
2021-12-27 15:57:26.348203,70
2021-12-27 15:57:26.348210,51
2021-12-27 15:57:26.348216,39
2021-12-27 15:57:26.348222,32
2021-12-27 15:57:26.348229,25
2021-12-27 15:57:26.348235,18
2021-12-27 15:57:26.348242,14
2021-12-27 15:57:26.348249,14
2021-12-27 15:57:26.348255,18
2021-12-27 15:57:26.348261,25
2021-12-27 15:57:26.348268,35
2021-12-27 15:57:26.348274,46
2021-12-27 15:57:26.348281,56
2021-12-27 15:57:26.348287,65
2021-12-27 15:57:26.348293,72
2021-12-27 15:57:26.348300,72
2021-12-27 15:57:26.348306,74
2021-12-27 15:57:26.348312,88
2021-12-27 15:57:26.348319,102
2021-12-27 15:57:26.592244,114
2021-12-27 15:57:26.592266,126
2021-12-27 15:57:26.592274,130
2021-12-27 15:57:26.592280,126
2021-12-27 15:57:26.592287,119
2021-12-27 15:57:26.592293,119
2021-12-27 15:57:26.592300,119
2021-12-27 15:57:26.592306,109
2021-12-27 15:57:26.592313,105
2021-12-27 15:57:26.592319,105
2021-12-27 15:57:26.592330,102
2021-12-27 15:57:26.592337,102
2021-12-27 15:57:26.592343,105
2021-12-27 15:57:26.592349,102
2021-12-27 15:57:26.592356,100
2021-12-27 15:57:26.592362,107
2021-12-27 15:57:26.592369,109
2021-12-27 15:57:26.592375,102
2021-12-27 15:57:26.592381,105
2021-12-27 15:57:26.592388,109
2021-12-27 15:57:26.592394,102
2021-12-27 15:57:26.592401,95
2021-12-27 15:57:26.592407,102
2021-12-27 15:57:26.592413,107
2021-12-27 15:57:26.592420,102
2021-12-27 15:57:26.592426,109
2021-12-27 15:57:26.592432,116
2021-12-27 15:57:26.592439,109
2021-12-27 15:57:26.592445,105
2021-12-27 15:57:26.592452,114
2021-12-27 15:57:26.787315,119
2021-12-27 15:57:26.787336,116
2021-12-27 15:57:26.787344,119
2021-12-27 15:57:26.787350,119
2021-12-27 15:57:26.787357,107
2021-12-27 15:57:26.787363,86
2021-12-27 15:57:26.787369,72
2021-12-27 15:57:26.787376,86
2021-12-27 15:57:26.787382,98
2021-12-27 15:57:26.787389,98
2021-12-27 15:57:26.787395,102
2021-12-27 15:57:26.787401,114
2021-12-27 15:57:26.787408,121
2021-12-27 15:57:26.787414,119
2021-12-27 15:57:26.787420,116
2021-12-27 15:57:26.787427,112
2021-12-27 15:57:26.787433,105
2021-12-27 15:57:26.787440,105
2021-12-27 15:57:26.787446,112
2021-12-27 15:57:26.787452,116
2021-12-27 15:57:26.787459,144
2021-12-27 15:57:26.787465,184
2021-12-27 15:57:26.787471,107
2021-12-27 15:57:26.787478,-263
2021-12-27 15:57:26.787484,-861
2021-12-27 15:57:26.787496,-1144
2021-12-27 15:57:26.787503,-551
2021-12-27 15:57:26.787509,261
2021-12-27 15:57:26.787516,298
2021-12-27 15:57:26.787522,51
2021-12-27 15:57:27.078291,149
2021-12-27 15:57:27.078321,224
2021-12-27 15:57:27.078333,144
2021-12-27 15:57:27.078343,137
2021-12-27 15:57:27.078353,161
2021-12-27 15:57:27.078363,126
2021-12-27 15:57:27.078373,102
2021-12-27 15:57:27.078383,107
2021-12-27 15:57:27.078393,95
2021-12-27 15:57:27.078403,79
2021-12-27 15:57:27.078413,67
2021-12-27 15:57:27.078423,53
2021-12-27 15:57:27.078433,39
2021-12-27 15:57:27.078443,32
2021-12-27 15:57:27.078453,21
2021-12-27 15:57:27.078463,9
2021-12-27 15:57:27.078473,9
2021-12-27 15:57:27.078483,4
2021-12-27 15:57:27.078493,0
2021-12-27 15:57:27.078503,4
2021-12-27 15:57:27.078513,14
2021-12-27 15:57:27.078523,21
2021-12-27 15:57:27.078533,30
2021-12-27 15:57:27.078543,37
2021-12-27 15:57:27.078553,35
2021-12-27 15:57:27.078562,35
2021-12-27 15:57:27.078572,44
2021-12-27 15:57:27.078582,58
2021-12-27 15:57:27.078592,70
2021-12-27 15:57:27.078602,79
2021-12-27 15:57:27.322800,95
2021-12-27 15:57:27.322827,114
2021-12-27 15:57:27.322839,121
2021-12-27 15:57:27.322849,116
2021-12-27 15:57:27.322859,107
2021-12-27 15:57:27.322869,107
2021-12-27 15:57:27.322879,102
2021-12-27 15:57:27.322889,93
2021-12-27 15:57:27.322899,93
2021-12-27 15:57:27.322909,93
2021-12-27 15:57:27.322919,88
2021-12-27 15:57:27.322929,91
2021-12-27 15:57:27.322939,93
2021-12-27 15:57:27.322949,86
2021-12-27 15:57:27.322958,84
2021-12-27 15:57:27.322968,86
2021-12-27 15:57:27.322983,88
2021-12-27 15:57:27.322992,91
2021-12-27 15:57:27.323002,95
2021-12-27 15:57:27.323012,95
2021-12-27 15:57:27.323022,98
2021-12-27 15:57:27.323032,102
2021-12-27 15:57:27.323041,105
2021-12-27 15:57:27.323051,102
2021-12-27 15:57:27.323061,107
2021-12-27 15:57:27.323071,109
2021-12-27 15:57:27.323081,102
2021-12-27 15:57:27.323091,100
2021-12-27 15:57:27.323100,109
2021-12-27 15:57:27.323110,112
2021-12-27 15:57:27.469763,107
2021-12-27 15:57:27.469784,107
2021-12-27 15:57:27.469791,98
2021-12-27 15:57:27.469798,72
2021-12-27 15:57:27.469804,56
2021-12-27 15:57:27.469811,65
2021-12-27 15:57:27.469817,77
2021-12-27 15:57:27.469824,81
2021-12-27 15:57:27.469830,91
2021-12-27 15:57:27.469837,93
2021-12-27 15:57:27.469843,93
2021-12-27 15:57:27.469849,98
2021-12-27 15:57:27.469856,100
2021-12-27 15:57:27.469862,98
2021-12-27 15:57:27.469869,93
2021-12-27 15:57:27.469875,91
2021-12-27 15:57:27.469881,88
2021-12-27 15:57:27.469888,95
2021-12-27 15:57:27.469894,144
2021-12-27 15:57:27.469901,189
2021-12-27 15:57:27.469907,65
2021-12-27 15:57:27.469914,-378
2021-12-27 15:57:27.469920,-1020
2021-12-27 15:57:27.469927,-1247
2021-12-27 15:57:27.469933,-546
2021-12-27 15:57:27.469939,263
2021-12-27 15:57:27.469946,247
2021-12-27 15:57:27.469952,37
2021-12-27 15:57:27.469959,175
2021-12-27 15:57:27.469965,235
2021-12-27 15:57:27.713451,147
2021-12-27 15:57:27.713480,147
2021-12-27 15:57:27.713492,165
2021-12-27 15:57:27.713502,126
2021-12-27 15:57:27.713512,107
2021-12-27 15:57:27.713521,109
2021-12-27 15:57:27.713531,93
2021-12-27 15:57:27.713541,74
2021-12-27 15:57:27.713551,67
2021-12-27 15:57:27.713561,53
2021-12-27 15:57:27.713571,37
2021-12-27 15:57:27.713581,28
2021-12-27 15:57:27.713590,25
2021-12-27 15:57:27.713608,18
2021-12-27 15:57:27.713618,9
2021-12-27 15:57:27.713628,2
2021-12-27 15:57:27.713638,2
2021-12-27 15:57:27.713648,4
2021-12-27 15:57:27.713657,11
2021-12-27 15:57:27.713667,21
2021-12-27 15:57:27.713677,35
2021-12-27 15:57:27.713686,44
2021-12-27 15:57:27.713696,49
2021-12-27 15:57:27.713706,58
2021-12-27 15:57:27.713716,70
2021-12-27 15:57:27.713725,81
2021-12-27 15:57:27.713735,91
2021-12-27 15:57:27.713745,100
2021-12-27 15:57:27.713754,114
2021-12-27 15:57:27.713764,123
2021-12-27 15:57:28.006000,128
2021-12-27 15:57:28.006021,128
2021-12-27 15:57:28.006029,123
2021-12-27 15:57:28.006035,116
2021-12-27 15:57:28.006042,116
2021-12-27 15:57:28.006048,114
2021-12-27 15:57:28.006055,107
2021-12-27 15:57:28.006061,102
2021-12-27 15:57:28.006068,100
2021-12-27 15:57:28.006074,95
2021-12-27 15:57:28.006080,93
2021-12-27 15:57:28.006087,93
2021-12-27 15:57:28.006093,93
2021-12-27 15:57:28.006099,93
2021-12-27 15:57:28.006106,93
2021-12-27 15:57:28.006112,98
2021-12-27 15:57:28.006119,102
2021-12-27 15:57:28.006125,102
2021-12-27 15:57:28.006131,102
2021-12-27 15:57:28.006138,102
2021-12-27 15:57:28.006144,102
2021-12-27 15:57:28.006151,105
2021-12-27 15:57:28.006157,109
2021-12-27 15:57:28.006163,109
2021-12-27 15:57:28.006170,112
2021-12-27 15:57:28.006176,109
2021-12-27 15:57:28.006183,109
2021-12-27 15:57:28.006189,107
2021-12-27 15:57:28.006195,105
2021-12-27 15:57:28.006202,98
2021-12-27 15:57:28.200333,81
2021-12-27 15:57:28.200352,65
2021-12-27 15:57:28.200358,65
2021-12-27 15:57:28.200363,74
2021-12-27 15:57:28.200369,81
2021-12-27 15:57:28.200374,93
2021-12-27 15:57:28.200379,100
2021-12-27 15:57:28.200384,91
2021-12-27 15:57:28.200389,91
2021-12-27 15:57:28.200393,98
2021-12-27 15:57:28.200399,95
2021-12-27 15:57:28.200404,86
2021-12-27 15:57:28.200409,86
2021-12-27 15:57:28.200414,81
2021-12-27 15:57:28.200419,77
2021-12-27 15:57:28.200424,100
2021-12-27 15:57:28.200428,163
2021-12-27 15:57:28.200438,156
2021-12-27 15:57:28.200444,-112
2021-12-27 15:57:28.200449,-707
2021-12-27 15:57:28.200454,-1270
2021-12-27 15:57:28.200459,-1041
2021-12-27 15:57:28.200464,-107
2021-12-27 15:57:28.200469,326
2021-12-27 15:57:28.200474,102
2021-12-27 15:57:28.200479,81
2021-12-27 15:57:28.200484,233
2021-12-27 15:57:28.200489,189
2021-12-27 15:57:28.200494,137
2021-12-27 15:57:28.200499,172
2021-12-27 15:57:28.444701,158
2021-12-27 15:57:28.444731,126
2021-12-27 15:57:28.444742,123
2021-12-27 15:57:28.444753,114
2021-12-27 15:57:28.444763,95
2021-12-27 15:57:28.444773,93
2021-12-27 15:57:28.444782,81
2021-12-27 15:57:28.444792,60
2021-12-27 15:57:28.444802,49
2021-12-27 15:57:28.444812,42
2021-12-27 15:57:28.444822,32
2021-12-27 15:57:28.444832,23
2021-12-27 15:57:28.444842,14
2021-12-27 15:57:28.444852,7
2021-12-27 15:57:28.444862,9
2021-12-27 15:57:28.444872,11
2021-12-27 15:57:28.444882,16
2021-12-27 15:57:28.444892,25
2021-12-27 15:57:28.444902,39
2021-12-27 15:57:28.444912,51
2021-12-27 15:57:28.444921,56
2021-12-27 15:57:28.444931,63
2021-12-27 15:57:28.444941,77
2021-12-27 15:57:28.444951,91
2021-12-27 15:57:28.444961,100
2021-12-27 15:57:28.444971,112
2021-12-27 15:57:28.444980,126
2021-12-27 15:57:28.444990,130
2021-12-27 15:57:28.445000,135
2021-12-27 15:57:28.445010,135
2021-12-27 15:57:28.639597,130
2021-12-27 15:57:28.639618,121
2021-12-27 15:57:28.639625,121
2021-12-27 15:57:28.639632,119
2021-12-27 15:57:28.639638,105
2021-12-27 15:57:28.639645,102
2021-12-27 15:57:28.639651,112
2021-12-27 15:57:28.639658,112
2021-12-27 15:57:28.639664,105
2021-12-27 15:57:28.639670,105
2021-12-27 15:57:28.639677,105
2021-12-27 15:57:28.639683,98
2021-12-27 15:57:28.639689,95
2021-12-27 15:57:28.639696,102
2021-12-27 15:57:28.639702,102
2021-12-27 15:57:28.639708,95
2021-12-27 15:57:28.639715,93
2021-12-27 15:57:28.639721,95
2021-12-27 15:57:28.639727,98
2021-12-27 15:57:28.639733,102
2021-12-27 15:57:28.639740,105
2021-12-27 15:57:28.639746,105
2021-12-27 15:57:28.639752,102
2021-12-27 15:57:28.639759,100
2021-12-27 15:57:28.639765,98
2021-12-27 15:57:28.639771,102
2021-12-27 15:57:28.639778,105
2021-12-27 15:57:28.639784,86
2021-12-27 15:57:28.639790,63
2021-12-27 15:57:28.639800,60
2021-12-27 15:57:28.883537,70
2021-12-27 15:57:28.883558,72
2021-12-27 15:57:28.883565,77
2021-12-27 15:57:28.883572,88
2021-12-27 15:57:28.883578,98
2021-12-27 15:57:28.883584,95
2021-12-27 15:57:28.883591,93
2021-12-27 15:57:28.883597,93
2021-12-27 15:57:28.883604,95
2021-12-27 15:57:28.883610,93
2021-12-27 15:57:28.883616,88
2021-12-27 15:57:28.883623,91
2021-12-27 15:57:28.883629,100
2021-12-27 15:57:28.883635,135
2021-12-27 15:57:28.883642,184
2021-12-27 15:57:28.883648,84
2021-12-27 15:57:28.883654,-333
2021-12-27 15:57:28.883661,-969
2021-12-27 15:57:28.883667,-1233
2021-12-27 15:57:28.883673,-590
2021-12-27 15:57:28.883680,224
2021-12-27 15:57:28.883686,252
2021-12-27 15:57:28.883692,42
2021-12-27 15:57:28.883699,156
2021-12-27 15:57:28.883705,221
2021-12-27 15:57:28.883711,149
2021-12-27 15:57:28.883718,144
2021-12-27 15:57:28.883724,156
2021-12-27 15:57:28.883731,128
2021-12-27 15:57:28.883737,116
2021-12-27 15:57:29.174705,114
2021-12-27 15:57:29.174725,100
2021-12-27 15:57:29.174733,86
2021-12-27 15:57:29.174740,77
2021-12-27 15:57:29.174746,63
2021-12-27 15:57:29.174752,56
2021-12-27 15:57:29.174759,44
2021-12-27 15:57:29.174765,25
2021-12-27 15:57:29.174772,14
2021-12-27 15:57:29.174778,9
2021-12-27 15:57:29.174784,4
2021-12-27 15:57:29.174791,9
2021-12-27 15:57:29.174797,11
2021-12-27 15:57:29.174803,11
2021-12-27 15:57:29.174810,16
2021-12-27 15:57:29.174816,23
2021-12-27 15:57:29.174823,28
2021-12-27 15:57:29.174829,32
2021-12-27 15:57:29.174835,39
2021-12-27 15:57:29.174842,44
2021-12-27 15:57:29.174848,49
2021-12-27 15:57:29.174854,67
2021-12-27 15:57:29.174861,81
2021-12-27 15:57:29.174867,93
2021-12-27 15:57:29.174874,109
2021-12-27 15:57:29.174880,119
2021-12-27 15:57:29.174887,116
2021-12-27 15:57:29.174893,114
2021-12-27 15:57:29.174899,112
2021-12-27 15:57:29.174906,107
2021-12-27 15:57:29.370079,109
2021-12-27 15:57:29.370100,105
2021-12-27 15:57:29.370107,95
2021-12-27 15:57:29.370114,95
2021-12-27 15:57:29.370121,100
2021-12-27 15:57:29.370127,100
2021-12-27 15:57:29.370134,102
2021-12-27 15:57:29.370140,107
2021-12-27 15:57:29.370146,107
2021-12-27 15:57:29.370153,98
2021-12-27 15:57:29.370159,95
2021-12-27 15:57:29.370166,105
2021-12-27 15:57:29.370172,107
2021-12-27 15:57:29.370179,105
2021-12-27 15:57:29.370185,107
2021-12-27 15:57:29.370191,107
2021-12-27 15:57:29.370198,102
2021-12-27 15:57:29.370204,107
2021-12-27 15:57:29.370211,109
2021-12-27 15:57:29.370217,105
2021-12-27 15:57:29.370229,107
2021-12-27 15:57:29.370235,107
2021-12-27 15:57:29.370242,98
2021-12-27 15:57:29.370248,84
2021-12-27 15:57:29.370255,72
2021-12-27 15:57:29.370261,63
2021-12-27 15:57:29.370267,72
2021-12-27 15:57:29.370274,79
2021-12-27 15:57:29.370280,81
2021-12-27 15:57:29.370287,95
2021-12-27 15:57:29.614038,105
2021-12-27 15:57:29.614059,100
2021-12-27 15:57:29.614066,98
2021-12-27 15:57:29.614073,102
2021-12-27 15:57:29.614079,98
2021-12-27 15:57:29.614086,91
2021-12-27 15:57:29.614092,93
2021-12-27 15:57:29.614099,95
2021-12-27 15:57:29.614105,105
2021-12-27 15:57:29.614112,149
2021-12-27 15:57:29.614118,189
2021-12-27 15:57:29.614124,70
2021-12-27 15:57:29.614131,-359
2021-12-27 15:57:29.614137,-1001
2021-12-27 15:57:29.614146,-1242
2021-12-27 15:57:29.614153,-560
2021-12-27 15:57:29.614159,235
2021-12-27 15:57:29.614165,231
2021-12-27 15:57:29.614172,44
2021-12-27 15:57:29.614178,179
2021-12-27 15:57:29.614184,233
2021-12-27 15:57:29.614191,151
2021-12-27 15:57:29.614197,147
2021-12-27 15:57:29.614203,158
2021-12-27 15:57:29.614209,121
2021-12-27 15:57:29.614216,107
2021-12-27 15:57:29.614222,109
2021-12-27 15:57:29.614228,91
2021-12-27 15:57:29.614235,74
2021-12-27 15:57:29.614241,70
2021-12-27 15:57:29.809372,63
2021-12-27 15:57:29.809392,44
2021-12-27 15:57:29.809399,30
2021-12-27 15:57:29.809404,25
2021-12-27 15:57:29.809409,16
2021-12-27 15:57:29.809414,7
2021-12-27 15:57:29.809419,0
2021-12-27 15:57:29.809425,-2
2021-12-27 15:57:29.809430,2
2021-12-27 15:57:29.809435,9
2021-12-27 15:57:29.809441,16
2021-12-27 15:57:29.809446,25
2021-12-27 15:57:29.809451,37
2021-12-27 15:57:29.809456,44
2021-12-27 15:57:29.809461,49
2021-12-27 15:57:29.809466,58
2021-12-27 15:57:29.809471,74
2021-12-27 15:57:29.809477,88
2021-12-27 15:57:29.809482,98
2021-12-27 15:57:29.809487,112
2021-12-27 15:57:29.809492,123
2021-12-27 15:57:29.809497,128
2021-12-27 15:57:29.809502,126
2021-12-27 15:57:29.809507,126
2021-12-27 15:57:29.809512,121
2021-12-27 15:57:29.809517,112
2021-12-27 15:57:29.809522,109
2021-12-27 15:57:29.809527,107
2021-12-27 15:57:29.809532,100
2021-12-27 15:57:29.809538,98
2021-12-27 15:57:30.053496,102
2021-12-27 15:57:30.053525,102
2021-12-27 15:57:30.053537,100
2021-12-27 15:57:30.053548,102
2021-12-27 15:57:30.053558,109
2021-12-27 15:57:30.053567,107
2021-12-27 15:57:30.053577,105
2021-12-27 15:57:30.053587,102
2021-12-27 15:57:30.053596,100
2021-12-27 15:57:30.053606,100
2021-12-27 15:57:30.053616,105
2021-12-27 15:57:30.053626,109
2021-12-27 15:57:30.053635,105
2021-12-27 15:57:30.053645,102
2021-12-27 15:57:30.053655,105
2021-12-27 15:57:30.053665,102
2021-12-27 15:57:30.053674,98
2021-12-27 15:57:30.053684,91
2021-12-27 15:57:30.053694,70
2021-12-27 15:57:30.053703,60
2021-12-27 15:57:30.053713,67
2021-12-27 15:57:30.053723,81
2021-12-27 15:57:30.053742,91
2021-12-27 15:57:30.053752,100
2021-12-27 15:57:30.053762,109
2021-12-27 15:57:30.053772,112
2021-12-27 15:57:30.053782,105
2021-12-27 15:57:30.053791,98
2021-12-27 15:57:30.053801,95
2021-12-27 15:57:30.053811,91
2021-12-27 15:57:30.248167,86
2021-12-27 15:57:30.248188,95
2021-12-27 15:57:30.248196,112
2021-12-27 15:57:30.248203,142
2021-12-27 15:57:30.248251,179
2021-12-27 15:57:30.248260,81
2021-12-27 15:57:30.248266,-364
2021-12-27 15:57:30.248273,-1051
2021-12-27 15:57:30.248279,-1307
2021-12-27 15:57:30.248285,-583
2021-12-27 15:57:30.248292,270
2021-12-27 15:57:30.248298,275
2021-12-27 15:57:30.248304,60
2021-12-27 15:57:30.248311,186
2021-12-27 15:57:30.248318,240
2021-12-27 15:57:30.248324,156
2021-12-27 15:57:30.248330,149
2021-12-27 15:57:30.248337,163
2021-12-27 15:57:30.248343,133
2021-12-27 15:57:30.248350,116
2021-12-27 15:57:30.248356,116
2021-12-27 15:57:30.248362,102
2021-12-27 15:57:30.248369,84
2021-12-27 15:57:30.248375,67
2021-12-27 15:57:30.248381,53
2021-12-27 15:57:30.248388,42
2021-12-27 15:57:30.248394,25
2021-12-27 15:57:30.248401,7
2021-12-27 15:57:30.248407,-4
2021-12-27 15:57:30.248414,-14
2021-12-27 15:57:30.540511,-25
2021-12-27 15:57:30.540540,-25
2021-12-27 15:57:30.540552,-18
2021-12-27 15:57:30.540562,-14
2021-12-27 15:57:30.540572,0
2021-12-27 15:57:30.540582,7
2021-12-27 15:57:30.540592,11
2021-12-27 15:57:30.540601,32
2021-12-27 15:57:30.540611,53
2021-12-27 15:57:30.540621,67
2021-12-27 15:57:30.540717,79
2021-12-27 15:57:30.540789,91
2021-12-27 15:57:30.540812,102
2021-12-27 15:57:30.540831,126
2021-12-27 15:57:30.540887,140
2021-12-27 15:57:30.540903,137
2021-12-27 15:57:30.540912,140
2021-12-27 15:57:30.540922,147
2021-12-27 15:57:30.540932,142
2021-12-27 15:57:30.540942,130
2021-12-27 15:57:30.540959,128
2021-12-27 15:57:30.540983,130
2021-12-27 15:57:30.540990,121
2021-12-27 15:57:30.540996,109
2021-12-27 15:57:30.541002,105
2021-12-27 15:57:30.541009,107
2021-12-27 15:57:30.541015,114
2021-12-27 15:57:30.541021,119
2021-12-27 15:57:30.541027,114
2021-12-27 15:57:30.541034,112
2021-12-27 15:57:30.735169,112
2021-12-27 15:57:30.735186,112
2021-12-27 15:57:30.735193,116
2021-12-27 15:57:30.735199,119
2021-12-27 15:57:30.735204,116
2021-12-27 15:57:30.735209,114
2021-12-27 15:57:30.735214,112
2021-12-27 15:57:30.735219,95
2021-12-27 15:57:30.735224,81
2021-12-27 15:57:30.735229,86
2021-12-27 15:57:30.735234,98
2021-12-27 15:57:30.735239,102
2021-12-27 15:57:30.735244,107
2021-12-27 15:57:30.735249,116
2021-12-27 15:57:30.735254,116
2021-12-27 15:57:30.735259,119
2021-12-27 15:57:30.735264,123
2021-12-27 15:57:30.735269,128
2021-12-27 15:57:30.735274,126
2021-12-27 15:57:30.735279,121
2021-12-27 15:57:30.735284,119
2021-12-27 15:57:30.735289,119
2021-12-27 15:57:30.735294,135
2021-12-27 15:57:30.735299,193
2021-12-27 15:57:30.735304,249
2021-12-27 15:57:30.735309,88
2021-12-27 15:57:30.735314,-490
2021-12-27 15:57:30.735319,-1219
2021-12-27 15:57:30.735324,-1230
2021-12-27 15:57:30.735329,-240
2021-12-27 15:57:30.979572,478
2021-12-27 15:57:30.979593,245
2021-12-27 15:57:30.979600,79
2021-12-27 15:57:30.979607,259
2021-12-27 15:57:30.979613,235
2021-12-27 15:57:30.979624,149
2021-12-27 15:57:30.979630,191
2021-12-27 15:57:30.979637,186
2021-12-27 15:57:30.979643,133
2021-12-27 15:57:30.979649,126
2021-12-27 15:57:30.979656,126
2021-12-27 15:57:30.979662,102
2021-12-27 15:57:30.979668,86
2021-12-27 15:57:30.979675,77
2021-12-27 15:57:30.979681,56
2021-12-27 15:57:30.979687,32
2021-12-27 15:57:30.979694,16
2021-12-27 15:57:30.979700,7
2021-12-27 15:57:30.979706,-2
2021-12-27 15:57:30.979713,-14
2021-12-27 15:57:30.979719,-23
2021-12-27 15:57:30.979725,-23
2021-12-27 15:57:30.979732,-16
2021-12-27 15:57:30.979738,-7
2021-12-27 15:57:30.979744,7
2021-12-27 15:57:30.979750,18
2021-12-27 15:57:30.979757,30
2021-12-27 15:57:30.979763,44
2021-12-27 15:57:30.979769,60
2021-12-27 15:57:30.979776,77
2021-12-27 15:57:31.222132,93
2021-12-27 15:57:31.222162,109
2021-12-27 15:57:31.222174,123
2021-12-27 15:57:31.222184,133
2021-12-27 15:57:31.222194,144
2021-12-27 15:57:31.222204,144
2021-12-27 15:57:31.222213,140
2021-12-27 15:57:31.222223,135
2021-12-27 15:57:31.222233,135
2021-12-27 15:57:31.222242,128
2021-12-27 15:57:31.222252,119
2021-12-27 15:57:31.222262,105
2021-12-27 15:57:31.222272,100
2021-12-27 15:57:31.222281,102
2021-12-27 15:57:31.222291,100
2021-12-27 15:57:31.222301,98
2021-12-27 15:57:31.222310,95
2021-12-27 15:57:31.222320,86
2021-12-27 15:57:31.222330,81
2021-12-27 15:57:31.222339,88
2021-12-27 15:57:31.222349,93
2021-12-27 15:57:31.222359,93
2021-12-27 15:57:31.222368,98
2021-12-27 15:57:31.222378,102
2021-12-27 15:57:31.222387,107
2021-12-27 15:57:31.222397,112
2021-12-27 15:57:31.222407,116
2021-12-27 15:57:31.222416,116
2021-12-27 15:57:31.222426,119
2021-12-27 15:57:31.222436,121
2021-12-27 15:57:31.418471,116
2021-12-27 15:57:31.418501,105
2021-12-27 15:57:31.418513,98
2021-12-27 15:57:31.418523,93
2021-12-27 15:57:31.418533,95
2021-12-27 15:57:31.418543,102
2021-12-27 15:57:31.418553,107
2021-12-27 15:57:31.418562,109
2021-12-27 15:57:31.418572,112
2021-12-27 15:57:31.418582,114
2021-12-27 15:57:31.418591,114
2021-12-27 15:57:31.418601,109
2021-12-27 15:57:31.418611,109
2021-12-27 15:57:31.418620,109
2021-12-27 15:57:31.418630,109
2021-12-27 15:57:31.418640,114
2021-12-27 15:57:31.418649,158
2021-12-27 15:57:31.418659,238
2021-12-27 15:57:31.418668,196
2021-12-27 15:57:31.418678,-221
2021-12-27 15:57:31.418688,-1044
2021-12-27 15:57:31.418698,-1653
2021-12-27 15:57:31.418707,-1102
2021-12-27 15:57:31.418717,112
2021-12-27 15:57:31.418727,434
2021-12-27 15:57:31.418736,95
2021-12-27 15:57:31.418746,168
2021-12-27 15:57:31.418756,329
2021-12-27 15:57:31.418766,228
2021-12-27 15:57:31.418775,189
2021-12-27 15:57:31.710996,235
2021-12-27 15:57:31.711026,205
2021-12-27 15:57:31.711038,168
2021-12-27 15:57:31.711048,172
2021-12-27 15:57:31.711058,165
2021-12-27 15:57:31.711067,144
2021-12-27 15:57:31.711077,130
2021-12-27 15:57:31.711087,114
2021-12-27 15:57:31.711097,98
2021-12-27 15:57:31.711107,84
2021-12-27 15:57:31.711116,67
2021-12-27 15:57:31.711126,51
2021-12-27 15:57:31.711136,37
2021-12-27 15:57:31.711146,23
2021-12-27 15:57:31.711155,9
2021-12-27 15:57:31.711165,0
2021-12-27 15:57:31.711175,-4
2021-12-27 15:57:31.711185,-2
2021-12-27 15:57:31.711195,7
2021-12-27 15:57:31.711205,18
2021-12-27 15:57:31.711215,32
2021-12-27 15:57:31.711225,49
2021-12-27 15:57:31.711235,72
2021-12-27 15:57:31.711244,95
2021-12-27 15:57:31.711254,107
2021-12-27 15:57:31.711264,114
2021-12-27 15:57:31.711274,123
2021-12-27 15:57:31.711283,133
2021-12-27 15:57:31.711293,140
2021-12-27 15:57:31.711303,144
2021-12-27 15:57:31.857166,137
2021-12-27 15:57:31.857191,128
2021-12-27 15:57:31.857199,126
2021-12-27 15:57:31.857206,119
2021-12-27 15:57:31.857212,112
2021-12-27 15:57:31.857218,112
2021-12-27 15:57:31.857225,114
2021-12-27 15:57:31.857231,109
2021-12-27 15:57:31.857238,102
2021-12-27 15:57:31.857244,98
2021-12-27 15:57:31.857250,95
2021-12-27 15:57:31.857257,95
2021-12-27 15:57:31.857263,93
2021-12-27 15:57:31.857270,98
2021-12-27 15:57:31.857276,100
2021-12-27 15:57:31.857282,93
2021-12-27 15:57:31.857289,91
2021-12-27 15:57:31.857295,95
2021-12-27 15:57:31.857301,95
2021-12-27 15:57:31.857308,98
2021-12-27 15:57:31.857314,102
2021-12-27 15:57:31.857320,98
2021-12-27 15:57:31.857327,93
2021-12-27 15:57:31.857333,95
2021-12-27 15:57:31.857339,102
2021-12-27 15:57:31.857346,102
2021-12-27 15:57:31.857352,105
2021-12-27 15:57:31.857358,109
2021-12-27 15:57:31.857365,105
2021-12-27 15:57:31.857371,93
2021-12-27 15:57:32.101018,74
2021-12-27 15:57:32.101047,74
2021-12-27 15:57:32.101058,86
2021-12-27 15:57:32.101069,81
2021-12-27 15:57:32.101079,84
2021-12-27 15:57:32.101088,100
2021-12-27 15:57:32.101098,107
2021-12-27 15:57:32.101108,105
2021-12-27 15:57:32.101118,107
2021-12-27 15:57:32.101127,107
2021-12-27 15:57:32.101137,100
2021-12-27 15:57:32.101147,102
2021-12-27 15:57:32.101157,105
2021-12-27 15:57:32.101167,100
2021-12-27 15:57:32.101177,107
2021-12-27 15:57:32.101187,154
2021-12-27 15:57:32.101197,224
2021-12-27 15:57:32.101206,168
2021-12-27 15:57:32.101216,-270
2021-12-27 15:57:32.101226,-1114
2021-12-27 15:57:32.101236,-1690
2021-12-27 15:57:32.101246,-1081
2021-12-27 15:57:32.101256,112
2021-12-27 15:57:32.101266,387
2021-12-27 15:57:32.101276,74
2021-12-27 15:57:32.101285,168
2021-12-27 15:57:32.101295,317
2021-12-27 15:57:32.101305,217
2021-12-27 15:57:32.101315,186
2021-12-27 15:57:32.101325,228
2021-12-27 15:57:32.344670,191
2021-12-27 15:57:32.344701,161
2021-12-27 15:57:32.344709,168
2021-12-27 15:57:32.344715,154
2021-12-27 15:57:32.344722,133
2021-12-27 15:57:32.344728,123
2021-12-27 15:57:32.344735,107
2021-12-27 15:57:32.344741,95
2021-12-27 15:57:32.344748,86
2021-12-27 15:57:32.344754,67
2021-12-27 15:57:32.344761,49
2021-12-27 15:57:32.344767,35
2021-12-27 15:57:32.344774,21
2021-12-27 15:57:32.344780,4
2021-12-27 15:57:32.344787,-2
2021-12-27 15:57:32.344793,-4
2021-12-27 15:57:32.344800,0
2021-12-27 15:57:32.344806,9
2021-12-27 15:57:32.344813,18
2021-12-27 15:57:32.344819,32
2021-12-27 15:57:32.344825,51
2021-12-27 15:57:32.344832,70
2021-12-27 15:57:32.344838,86
2021-12-27 15:57:32.344845,107
2021-12-27 15:57:32.344851,116
2021-12-27 15:57:32.344858,123
2021-12-27 15:57:32.344864,135
2021-12-27 15:57:32.344871,140
2021-12-27 15:57:32.344877,135
2021-12-27 15:57:32.344883,135
2021-12-27 15:57:32.588417,135
2021-12-27 15:57:32.588446,128
2021-12-27 15:57:32.588458,123
2021-12-27 15:57:32.588468,121
2021-12-27 15:57:32.588478,116
2021-12-27 15:57:32.588488,114
2021-12-27 15:57:32.588498,116
2021-12-27 15:57:32.588507,107
2021-12-27 15:57:32.588517,98
2021-12-27 15:57:32.588527,100
2021-12-27 15:57:32.588537,100
2021-12-27 15:57:32.588547,100
2021-12-27 15:57:32.588556,102
2021-12-27 15:57:32.588566,102
2021-12-27 15:57:32.588576,98
2021-12-27 15:57:32.588586,95
2021-12-27 15:57:32.588595,100
2021-12-27 15:57:32.588605,100
2021-12-27 15:57:32.588615,98
2021-12-27 15:57:32.588625,98
2021-12-27 15:57:32.588634,100
2021-12-27 15:57:32.588644,100
2021-12-27 15:57:32.588654,102
2021-12-27 15:57:32.588664,107
2021-12-27 15:57:32.588674,105
2021-12-27 15:57:32.588683,105
2021-12-27 15:57:32.588693,105
2021-12-27 15:57:32.588703,100
2021-12-27 15:57:32.588713,95
2021-12-27 15:57:32.588722,98
2021-12-27 15:57:32.783427,102
2021-12-27 15:57:32.783447,105
2021-12-27 15:57:32.783454,102
2021-12-27 15:57:32.783461,100
2021-12-27 15:57:32.783467,100
2021-12-27 15:57:32.783474,102
2021-12-27 15:57:32.783480,100
2021-12-27 15:57:32.783487,98
2021-12-27 15:57:32.783493,100
2021-12-27 15:57:32.783499,100
2021-12-27 15:57:32.783506,95
2021-12-27 15:57:32.783516,100
2021-12-27 15:57:32.783522,98
2021-12-27 15:57:32.783529,79
2021-12-27 15:57:32.783535,63
2021-12-27 15:57:32.783542,67
2021-12-27 15:57:32.783548,72
2021-12-27 15:57:32.783554,70
2021-12-27 15:57:32.783561,79
2021-12-27 15:57:32.783567,93
2021-12-27 15:57:32.783573,88
2021-12-27 15:57:32.783580,84
2021-12-27 15:57:32.783586,91
2021-12-27 15:57:32.783593,91
2021-12-27 15:57:32.783599,84
2021-12-27 15:57:32.783605,84
2021-12-27 15:57:32.783612,88
2021-12-27 15:57:32.783618,86
2021-12-27 15:57:32.783625,100
2021-12-27 15:57:32.783631,156
2021-12-27 15:57:33.027299,210
2021-12-27 15:57:33.027321,70
2021-12-27 15:57:33.027329,-467
2021-12-27 15:57:33.027336,-1261
2021-12-27 15:57:33.027342,-1541
2021-12-27 15:57:33.027349,-707
2021-12-27 15:57:33.027355,261
2021-12-27 15:57:33.027362,277
2021-12-27 15:57:33.027368,51
2021-12-27 15:57:33.027375,212
2021-12-27 15:57:33.027381,275
2021-12-27 15:57:33.027388,172
2021-12-27 15:57:33.027394,175
2021-12-27 15:57:33.027401,200
2021-12-27 15:57:33.027407,161
2021-12-27 15:57:33.027413,142
2021-12-27 15:57:33.027420,147
2021-12-27 15:57:33.027426,128
2021-12-27 15:57:33.027433,105
2021-12-27 15:57:33.027439,100
2021-12-27 15:57:33.027446,91
2021-12-27 15:57:33.027452,74
2021-12-27 15:57:33.027458,58
2021-12-27 15:57:33.027465,51
2021-12-27 15:57:33.027503,37
2021-12-27 15:57:33.027510,28
2021-12-27 15:57:33.027516,25
2021-12-27 15:57:33.027522,18
2021-12-27 15:57:33.027529,11
2021-12-27 15:57:33.027535,16
2021-12-27 15:57:33.318162,23
2021-12-27 15:57:33.318192,25
2021-12-27 15:57:33.318205,28
2021-12-27 15:57:33.318216,37
2021-12-27 15:57:33.318227,56
2021-12-27 15:57:33.318238,74
2021-12-27 15:57:33.318249,81
2021-12-27 15:57:33.318260,86
2021-12-27 15:57:33.318271,100
2021-12-27 15:57:33.318282,109
2021-12-27 15:57:33.318293,116
2021-12-27 15:57:33.318304,123
2021-12-27 15:57:33.318316,128
2021-12-27 15:57:33.318327,126
2021-12-27 15:57:33.318338,121
2021-12-27 15:57:33.318348,116
2021-12-27 15:57:33.318360,112
2021-12-27 15:57:33.318371,109
2021-12-27 15:57:33.318382,107
2021-12-27 15:57:33.318394,100
2021-12-27 15:57:33.318404,98
2021-12-27 15:57:33.318416,100
2021-12-27 15:57:33.318428,100
2021-12-27 15:57:33.318439,95
2021-12-27 15:57:33.318450,93
2021-12-27 15:57:33.318499,93
2021-12-27 15:57:33.318538,91
2021-12-27 15:57:33.318564,98
2021-12-27 15:57:33.318572,102
2021-12-27 15:57:33.318579,100
2021-12-27 15:57:33.466002,102
2021-12-27 15:57:33.466032,105
2021-12-27 15:57:33.466043,105
2021-12-27 15:57:33.466054,107
2021-12-27 15:57:33.466063,112
2021-12-27 15:57:33.466073,116
2021-12-27 15:57:33.466083,114
2021-12-27 15:57:33.466092,112
2021-12-27 15:57:33.466102,109
2021-12-27 15:57:33.466112,109
2021-12-27 15:57:33.466122,114
2021-12-27 15:57:33.466131,116
2021-12-27 15:57:33.466141,109
2021-12-27 15:57:33.466151,109
2021-12-27 15:57:33.466161,109
2021-12-27 15:57:33.466170,102
2021-12-27 15:57:33.466180,100
2021-12-27 15:57:33.466190,100
2021-12-27 15:57:33.466200,98
2021-12-27 15:57:33.466209,95
2021-12-27 15:57:33.466219,95
2021-12-27 15:57:33.466229,93
2021-12-27 15:57:33.466239,91
2021-12-27 15:57:33.466248,91
2021-12-27 15:57:33.466258,95
2021-12-27 15:57:33.466268,95
2021-12-27 15:57:33.466278,88
2021-12-27 15:57:33.466287,70
2021-12-27 15:57:33.466297,51
2021-12-27 15:57:33.466306,51
2021-12-27 15:57:33.758368,60
2021-12-27 15:57:33.758397,63
2021-12-27 15:57:33.758409,65
2021-12-27 15:57:33.758419,72
2021-12-27 15:57:33.758429,77
2021-12-27 15:57:33.758439,72
2021-12-27 15:57:33.758449,70
2021-12-27 15:57:33.758459,67
2021-12-27 15:57:33.758468,60
2021-12-27 15:57:33.758478,58
2021-12-27 15:57:33.758488,56
2021-12-27 15:57:33.758498,58
2021-12-27 15:57:33.758508,65
2021-12-27 15:57:33.758517,100
2021-12-27 15:57:33.758527,165
2021-12-27 15:57:33.758537,149
2021-12-27 15:57:33.758547,-182
2021-12-27 15:57:33.758557,-871
2021-12-27 15:57:33.758566,-1434
2021-12-27 15:57:33.758576,-1072
2021-12-27 15:57:33.758586,-49
2021-12-27 15:57:33.758596,333
2021-12-27 15:57:33.758606,86
2021-12-27 15:57:33.758615,102
2021-12-27 15:57:33.758625,256
2021-12-27 15:57:33.758635,200
2021-12-27 15:57:33.758644,154
2021-12-27 15:57:33.758654,184
2021-12-27 15:57:33.758664,163
2021-12-27 15:57:33.758674,128
2021-12-27 15:57:34.002100,128
2021-12-27 15:57:34.002130,121
2021-12-27 15:57:34.002141,105
2021-12-27 15:57:34.002151,100
2021-12-27 15:57:34.002161,88
2021-12-27 15:57:34.002171,63
2021-12-27 15:57:34.002180,49
2021-12-27 15:57:34.002190,49
2021-12-27 15:57:34.002205,37
2021-12-27 15:57:34.002215,21
2021-12-27 15:57:34.002225,18
2021-12-27 15:57:34.002235,16
2021-12-27 15:57:34.002244,9
2021-12-27 15:57:34.002254,7
2021-12-27 15:57:34.002264,18
2021-12-27 15:57:34.002273,30
2021-12-27 15:57:34.002283,37
2021-12-27 15:57:34.002293,46
2021-12-27 15:57:34.002303,53
2021-12-27 15:57:34.002312,65
2021-12-27 15:57:34.002322,79
2021-12-27 15:57:34.002332,91
2021-12-27 15:57:34.002342,98
2021-12-27 15:57:34.002352,109
2021-12-27 15:57:34.002362,116
2021-12-27 15:57:34.002371,123
2021-12-27 15:57:34.002381,128
2021-12-27 15:57:34.002391,130
2021-12-27 15:57:34.002401,123
2021-12-27 15:57:34.002411,116
2021-12-27 15:57:34.197429,114
2021-12-27 15:57:34.197450,107
2021-12-27 15:57:34.197457,100
2021-12-27 15:57:34.197464,98
2021-12-27 15:57:34.197470,98
2021-12-27 15:57:34.197476,95
2021-12-27 15:57:34.197483,93
2021-12-27 15:57:34.197489,88
2021-12-27 15:57:34.197495,86
2021-12-27 15:57:34.197501,86
2021-12-27 15:57:34.197508,86
2021-12-27 15:57:34.197514,88
2021-12-27 15:57:34.197520,91
2021-12-27 15:57:34.197526,88
2021-12-27 15:57:34.197532,84
2021-12-27 15:57:34.197538,84
2021-12-27 15:57:34.197545,88
2021-12-27 15:57:34.197551,91
2021-12-27 15:57:34.197557,91
2021-12-27 15:57:34.197563,88
2021-12-27 15:57:34.197569,81
2021-12-27 15:57:34.197576,81
2021-12-27 15:57:34.197582,88
2021-12-27 15:57:34.197588,88
2021-12-27 15:57:34.197594,86
2021-12-27 15:57:34.197601,86
2021-12-27 15:57:34.197607,81
2021-12-27 15:57:34.197613,77
2021-12-27 15:57:34.197619,81
2021-12-27 15:57:34.197625,81
2021-12-27 15:57:34.537744,74
2021-12-27 15:57:34.537774,72
2021-12-27 15:57:34.537785,67
2021-12-27 15:57:34.537795,65
2021-12-27 15:57:34.537805,67
2021-12-27 15:57:34.537815,67
2021-12-27 15:57:34.537824,65
2021-12-27 15:57:34.537834,67
2021-12-27 15:57:34.537844,70
2021-12-27 15:57:34.537854,65
2021-12-27 15:57:34.537864,65
2021-12-27 15:57:34.537873,58
2021-12-27 15:57:34.537883,39
2021-12-27 15:57:34.537893,30
2021-12-27 15:57:34.537902,39
2021-12-27 15:57:34.537912,44
2021-12-27 15:57:34.537922,46
2021-12-27 15:57:34.537932,63
2021-12-27 15:57:34.537941,77
2021-12-27 15:57:34.537951,74
2021-12-27 15:57:34.537961,74
2021-12-27 15:57:34.537970,74
2021-12-27 15:57:34.537980,72
2021-12-27 15:57:34.537989,74
2021-12-27 15:57:34.537999,79
2021-12-27 15:57:34.538009,79
2021-12-27 15:57:34.538019,86
2021-12-27 15:57:34.538029,119
2021-12-27 15:57:34.538038,182
2021-12-27 15:57:34.538048,163
2021-12-27 15:57:34.683959,-151
2021-12-27 15:57:34.683979,-812
2021-12-27 15:57:34.683986,-1378
2021-12-27 15:57:34.683993,-1041
2021-12-27 15:57:34.683999,-37
2021-12-27 15:57:34.684006,345
2021-12-27 15:57:34.684012,93
2021-12-27 15:57:34.684018,109
2021-12-27 15:57:34.684025,266
2021-12-27 15:57:34.684031,205
2021-12-27 15:57:34.684037,154
2021-12-27 15:57:34.684044,186
2021-12-27 15:57:34.684050,172
2021-12-27 15:57:34.684057,140
2021-12-27 15:57:34.684063,140
2021-12-27 15:57:34.684069,133
2021-12-27 15:57:34.684076,109
2021-12-27 15:57:34.684082,95
2021-12-27 15:57:34.684088,88
2021-12-27 15:57:34.684094,70
2021-12-27 15:57:34.684101,53
2021-12-27 15:57:34.684107,46
2021-12-27 15:57:34.684113,37
2021-12-27 15:57:34.684120,23
2021-12-27 15:57:34.684126,16
2021-12-27 15:57:34.684132,14
2021-12-27 15:57:34.684139,14
2021-12-27 15:57:34.684145,14
2021-12-27 15:57:34.684151,18
2021-12-27 15:57:34.684158,25
2021-12-27 15:57:34.928699,32
2021-12-27 15:57:34.928718,44
2021-12-27 15:57:34.928726,63
2021-12-27 15:57:34.928733,77
2021-12-27 15:57:34.928739,84
2021-12-27 15:57:34.928746,93
2021-12-27 15:57:34.928752,93
2021-12-27 15:57:34.928758,93
2021-12-27 15:57:34.928765,107
2021-12-27 15:57:34.928771,123
2021-12-27 15:57:34.928777,128
2021-12-27 15:57:34.928784,126
2021-12-27 15:57:34.928790,123
2021-12-27 15:57:34.928800,121
2021-12-27 15:57:34.928812,116
2021-12-27 15:57:34.928824,109
2021-12-27 15:57:34.928855,105
2021-12-27 15:57:34.928875,105
2021-12-27 15:57:34.928883,95
2021-12-27 15:57:34.928890,84
2021-12-27 15:57:34.928897,84
2021-12-27 15:57:34.928903,88
2021-12-27 15:57:34.928910,84
2021-12-27 15:57:34.928916,86
2021-12-27 15:57:34.928922,95
2021-12-27 15:57:34.928929,98
2021-12-27 15:57:34.928935,93
2021-12-27 15:57:34.928942,88
2021-12-27 15:57:34.928948,93
2021-12-27 15:57:34.928955,100
2021-12-27 15:57:35.220558,102
2021-12-27 15:57:35.220587,98
2021-12-27 15:57:35.220598,98
2021-12-27 15:57:35.220608,100
2021-12-27 15:57:35.220618,98
2021-12-27 15:57:35.220628,98
2021-12-27 15:57:35.220637,102
2021-12-27 15:57:35.220647,105
2021-12-27 15:57:35.220656,102
2021-12-27 15:57:35.220666,95
2021-12-27 15:57:35.220676,93
2021-12-27 15:57:35.220685,95
2021-12-27 15:57:35.220695,100
2021-12-27 15:57:35.220704,98
2021-12-27 15:57:35.220714,93
2021-12-27 15:57:35.220723,91
2021-12-27 15:57:35.220733,91
2021-12-27 15:57:35.220742,86
2021-12-27 15:57:35.220752,91
2021-12-27 15:57:35.220762,102
2021-12-27 15:57:35.220771,98
2021-12-27 15:57:35.220781,84
2021-12-27 15:57:35.220790,74
2021-12-27 15:57:35.220805,63
2021-12-27 15:57:35.220815,56
2021-12-27 15:57:35.220824,60
2021-12-27 15:57:35.220834,65
2021-12-27 15:57:35.220844,67
2021-12-27 15:57:35.220853,77
2021-12-27 15:57:35.220863,84
2021-12-27 15:57:35.511617,86
2021-12-27 15:57:35.511648,86
2021-12-27 15:57:35.511662,91
2021-12-27 15:57:35.511674,95
2021-12-27 15:57:35.511686,95
2021-12-27 15:57:35.511698,88
2021-12-27 15:57:35.511709,84
2021-12-27 15:57:35.511721,95
2021-12-27 15:57:35.511732,147
2021-12-27 15:57:35.511744,196
2021-12-27 15:57:35.511755,84
2021-12-27 15:57:35.511767,-366
2021-12-27 15:57:35.511787,-1051
2021-12-27 15:57:35.511798,-1284
2021-12-27 15:57:35.511810,-530
2021-12-27 15:57:35.511822,312
2021-12-27 15:57:35.511833,268
2021-12-27 15:57:35.511844,46
2021-12-27 15:57:35.511856,203
2021-12-27 15:57:35.511868,249
2021-12-27 15:57:35.511879,147
2021-12-27 15:57:35.511891,151
2021-12-27 15:57:35.511902,170
2021-12-27 15:57:35.511918,128
2021-12-27 15:57:35.511961,112
2021-12-27 15:57:35.511991,109
2021-12-27 15:57:35.512005,93
2021-12-27 15:57:35.512018,79
2021-12-27 15:57:35.512030,65
2021-12-27 15:57:35.512042,51
2021-12-27 15:57:35.609510,44
2021-12-27 15:57:35.609526,30
2021-12-27 15:57:35.609531,18
2021-12-27 15:57:35.609536,11
2021-12-27 15:57:35.609540,0
2021-12-27 15:57:35.609545,-9
2021-12-27 15:57:35.609549,-9
2021-12-27 15:57:35.609553,-9
2021-12-27 15:57:35.609558,-18
2021-12-27 15:57:35.609562,-14
2021-12-27 15:57:35.609566,2
2021-12-27 15:57:35.609571,11
2021-12-27 15:57:35.609575,16
2021-12-27 15:57:35.609580,35
2021-12-27 15:57:35.609584,60
2021-12-27 15:57:35.609588,79
2021-12-27 15:57:35.609593,84
2021-12-27 15:57:35.609597,93
2021-12-27 15:57:35.609602,116
2021-12-27 15:57:35.609606,137
2021-12-27 15:57:35.609610,144
2021-12-27 15:57:35.609615,142
2021-12-27 15:57:35.609619,147
2021-12-27 15:57:35.609624,149
2021-12-27 15:57:35.609628,135
2021-12-27 15:57:35.609632,121
2021-12-27 15:57:35.609637,123
2021-12-27 15:57:35.609641,119
2021-12-27 15:57:35.609645,112
2021-12-27 15:57:35.609652,109
2021-12-27 15:57:35.805092,98
2021-12-27 15:57:35.805107,93
2021-12-27 15:57:35.805113,100
2021-12-27 15:57:35.805117,100
2021-12-27 15:57:35.805122,93
2021-12-27 15:57:35.805126,95
2021-12-27 15:57:35.805130,95
2021-12-27 15:57:35.805135,95
2021-12-27 15:57:35.805139,100
2021-12-27 15:57:35.805144,105
2021-12-27 15:57:35.805148,109
2021-12-27 15:57:35.805153,112
2021-12-27 15:57:35.805157,107
2021-12-27 15:57:35.805162,102
2021-12-27 15:57:35.805166,105
2021-12-27 15:57:35.805170,109
2021-12-27 15:57:35.805175,112
2021-12-27 15:57:35.805179,114
2021-12-27 15:57:35.805183,112
2021-12-27 15:57:35.805188,105
2021-12-27 15:57:35.805192,88
2021-12-27 15:57:35.805197,74
2021-12-27 15:57:35.805201,77
2021-12-27 15:57:35.805205,88
2021-12-27 15:57:35.805210,93
2021-12-27 15:57:35.805214,100
2021-12-27 15:57:35.805218,109
2021-12-27 15:57:35.805223,109
2021-12-27 15:57:35.805227,105
2021-12-27 15:57:35.805231,107
2021-12-27 15:57:36.000210,107
2021-12-27 15:57:36.000232,107
2021-12-27 15:57:36.000240,107
2021-12-27 15:57:36.000247,102
2021-12-27 15:57:36.000255,102
2021-12-27 15:57:36.000261,123
2021-12-27 15:57:36.000267,179
2021-12-27 15:57:36.000275,219
2021-12-27 15:57:36.000284,44
2021-12-27 15:57:36.000292,-518
2021-12-27 15:57:36.000297,-1200
2021-12-27 15:57:36.000303,-1172
2021-12-27 15:57:36.000309,-189
2021-12-27 15:57:36.000317,476
2021-12-27 15:57:36.000324,207
2021-12-27 15:57:36.000330,49
2021-12-27 15:57:36.000338,233
2021-12-27 15:57:36.000344,200
2021-12-27 15:57:36.000383,116
2021-12-27 15:57:36.000391,161
2021-12-27 15:57:36.000398,158
2021-12-27 15:57:36.000404,107
2021-12-27 15:57:36.000412,102
2021-12-27 15:57:36.000418,102
2021-12-27 15:57:36.000425,77
2021-12-27 15:57:36.000432,63
2021-12-27 15:57:36.000438,56
2021-12-27 15:57:36.000445,37
2021-12-27 15:57:36.000453,18
2021-12-27 15:57:36.000459,9
2021-12-27 15:57:36.243795,2
2021-12-27 15:57:36.243814,-11
2021-12-27 15:57:36.243822,-23
2021-12-27 15:57:36.243829,-32
2021-12-27 15:57:36.243838,-39
2021-12-27 15:57:36.243847,-42
2021-12-27 15:57:36.243853,-42
2021-12-27 15:57:36.243858,-35
2021-12-27 15:57:36.243865,-25
2021-12-27 15:57:36.243873,-16
2021-12-27 15:57:36.243882,0
2021-12-27 15:57:36.243889,25
2021-12-27 15:57:36.243895,42
2021-12-27 15:57:36.243901,56
2021-12-27 15:57:36.243908,77
2021-12-27 15:57:36.243916,95
2021-12-27 15:57:36.243925,107
2021-12-27 15:57:36.243932,116
2021-12-27 15:57:36.243937,121
2021-12-27 15:57:36.243944,116
2021-12-27 15:57:36.243953,119
2021-12-27 15:57:36.243961,121
2021-12-27 15:57:36.243967,112
2021-12-27 15:57:36.243973,102
2021-12-27 15:57:36.243979,98
2021-12-27 15:57:36.243987,95
2021-12-27 15:57:36.243995,95
2021-12-27 15:57:36.244003,91
2021-12-27 15:57:36.244009,84
2021-12-27 15:57:36.244014,84
2021-12-27 15:57:36.487712,84
2021-12-27 15:57:36.487734,84
2021-12-27 15:57:36.487743,91
2021-12-27 15:57:36.487751,95
2021-12-27 15:57:36.487759,91
2021-12-27 15:57:36.487767,88
2021-12-27 15:57:36.487775,95
2021-12-27 15:57:36.487783,102
2021-12-27 15:57:36.487790,105
2021-12-27 15:57:36.487798,109
2021-12-27 15:57:36.487804,114
2021-12-27 15:57:36.487811,109
2021-12-27 15:57:36.487818,105
2021-12-27 15:57:36.487825,109
2021-12-27 15:57:36.487833,114
2021-12-27 15:57:36.487840,116
2021-12-27 15:57:36.487850,116
2021-12-27 15:57:36.487858,116
2021-12-27 15:57:36.487866,107
2021-12-27 15:57:36.487873,91
2021-12-27 15:57:36.487880,77
2021-12-27 15:57:36.487887,79
2021-12-27 15:57:36.487895,88
2021-12-27 15:57:36.487903,93
2021-12-27 15:57:36.487911,100
2021-12-27 15:57:36.487919,109
2021-12-27 15:57:36.487927,112
2021-12-27 15:57:36.487935,109
2021-12-27 15:57:36.487944,109
2021-12-27 15:57:36.487955,114
2021-12-27 15:57:36.731626,112
2021-12-27 15:57:36.731652,109
2021-12-27 15:57:36.731665,112
2021-12-27 15:57:36.731678,121
2021-12-27 15:57:36.731689,156
2021-12-27 15:57:36.731701,224
2021-12-27 15:57:36.731712,182
2021-12-27 15:57:36.731724,-214
2021-12-27 15:57:36.731736,-1001
2021-12-27 15:57:36.731747,-1606
2021-12-27 15:57:36.731762,-1116
2021-12-27 15:57:36.731774,77
2021-12-27 15:57:36.731786,443
2021-12-27 15:57:36.731798,98
2021-12-27 15:57:36.731810,133
2021-12-27 15:57:36.731821,308
2021-12-27 15:57:36.731832,219
2021-12-27 15:57:36.731844,175
2021-12-27 15:57:36.731856,221
2021-12-27 15:57:36.731867,193
2021-12-27 15:57:36.731879,149
2021-12-27 15:57:36.731891,158
2021-12-27 15:57:36.731902,149
2021-12-27 15:57:36.731914,123
2021-12-27 15:57:36.731925,116
2021-12-27 15:57:36.731936,112
2021-12-27 15:57:36.731947,93
2021-12-27 15:57:36.731960,79
2021-12-27 15:57:36.731972,65
2021-12-27 15:57:36.731985,51
2021-12-27 15:57:37.024178,42
2021-12-27 15:57:37.024207,32
2021-12-27 15:57:37.024221,18
2021-12-27 15:57:37.024233,11
2021-12-27 15:57:37.024246,9
2021-12-27 15:57:37.024258,9
2021-12-27 15:57:37.024269,18
2021-12-27 15:57:37.024282,30
2021-12-27 15:57:37.024294,37
2021-12-27 15:57:37.024306,49
2021-12-27 15:57:37.024318,65
2021-12-27 15:57:37.024330,88
2021-12-27 15:57:37.024342,107
2021-12-27 15:57:37.024354,123
2021-12-27 15:57:37.024366,133
2021-12-27 15:57:37.024378,137
2021-12-27 15:57:37.024390,142
2021-12-27 15:57:37.024402,147
2021-12-27 15:57:37.024414,147
2021-12-27 15:57:37.024426,142
2021-12-27 15:57:37.024438,137
2021-12-27 15:57:37.024450,128
2021-12-27 15:57:37.024462,121
2021-12-27 15:57:37.024474,116
2021-12-27 15:57:37.024486,109
2021-12-27 15:57:37.024498,100
2021-12-27 15:57:37.024510,95
2021-12-27 15:57:37.024519,93
2021-12-27 15:57:37.024526,88
2021-12-27 15:57:37.024532,86
2021-12-27 15:57:37.170535,88
2021-12-27 15:57:37.170565,93
2021-12-27 15:57:37.170578,91
2021-12-27 15:57:37.170591,86
2021-12-27 15:57:37.170603,86
2021-12-27 15:57:37.170660,88
2021-12-27 15:57:37.170674,95
2021-12-27 15:57:37.170686,93
2021-12-27 15:57:37.170698,91
2021-12-27 15:57:37.170710,95
2021-12-27 15:57:37.170722,95
2021-12-27 15:57:37.170734,93
2021-12-27 15:57:37.170746,95
2021-12-27 15:57:37.170758,102
2021-12-27 15:57:37.170771,107
2021-12-27 15:57:37.170783,107
2021-12-27 15:57:37.170795,100
2021-12-27 15:57:37.170807,79
2021-12-27 15:57:37.170819,63
2021-12-27 15:57:37.170831,67
2021-12-27 15:57:37.170844,81
2021-12-27 15:57:37.170855,84
2021-12-27 15:57:37.170867,88
2021-12-27 15:57:37.170880,95
2021-12-27 15:57:37.170893,95
2021-12-27 15:57:37.170904,98
2021-12-27 15:57:37.170917,98
2021-12-27 15:57:37.170928,93
2021-12-27 15:57:37.170940,93
2021-12-27 15:57:37.170952,95
2021-12-27 15:57:37.511117,93
2021-12-27 15:57:37.511136,95
2021-12-27 15:57:37.511142,116
2021-12-27 15:57:37.511148,175
2021-12-27 15:57:37.511153,221
2021-12-27 15:57:37.511158,42
2021-12-27 15:57:37.511163,-576
2021-12-27 15:57:37.511168,-1415
2021-12-27 15:57:37.511173,-1581
2021-12-27 15:57:37.511178,-560
2021-12-27 15:57:37.511183,394
2021-12-27 15:57:37.511188,266
2021-12-27 15:57:37.511193,39
2021-12-27 15:57:37.511198,256
2021-12-27 15:57:37.511203,298
2021-12-27 15:57:37.511208,177
2021-12-27 15:57:37.511213,200
2021-12-27 15:57:37.511218,221
2021-12-27 15:57:37.511223,165
2021-12-27 15:57:37.511228,156
2021-12-27 15:57:37.511233,170
2021-12-27 15:57:37.511238,144
2021-12-27 15:57:37.511243,123
2021-12-27 15:57:37.511247,123
2021-12-27 15:57:37.511252,112
2021-12-27 15:57:37.511257,93
2021-12-27 15:57:37.511262,79
2021-12-27 15:57:37.511267,67
2021-12-27 15:57:37.511272,49
2021-12-27 15:57:37.511277,32
2021-12-27 15:57:37.658185,23
2021-12-27 15:57:37.658204,11
2021-12-27 15:57:37.658210,7
2021-12-27 15:57:37.658215,7
2021-12-27 15:57:37.658221,7
2021-12-27 15:57:37.658226,11
2021-12-27 15:57:37.658231,23
2021-12-27 15:57:37.658236,37
2021-12-27 15:57:37.658241,53
2021-12-27 15:57:37.658246,79
2021-12-27 15:57:37.658251,105
2021-12-27 15:57:37.658257,126
2021-12-27 15:57:37.658262,144
2021-12-27 15:57:37.658267,156
2021-12-27 15:57:37.658272,156
2021-12-27 15:57:37.658277,156
2021-12-27 15:57:37.658282,158
2021-12-27 15:57:37.658287,158
2021-12-27 15:57:37.658293,154
2021-12-27 15:57:37.658298,149
2021-12-27 15:57:37.658303,137
2021-12-27 15:57:37.658308,128
2021-12-27 15:57:37.658313,123
2021-12-27 15:57:37.658318,114
2021-12-27 15:57:37.658323,109
2021-12-27 15:57:37.658328,112
2021-12-27 15:57:37.658333,109
2021-12-27 15:57:37.658338,107
2021-12-27 15:57:37.658344,107
2021-12-27 15:57:37.658349,102
2021-12-27 15:57:37.852812,98
2021-12-27 15:57:37.852832,100
2021-12-27 15:57:37.852840,100
2021-12-27 15:57:37.852847,100
2021-12-27 15:57:37.852853,105
2021-12-27 15:57:37.852859,109
2021-12-27 15:57:37.852865,105
2021-12-27 15:57:37.852872,98
2021-12-27 15:57:37.852878,98
2021-12-27 15:57:37.852884,100
2021-12-27 15:57:37.852891,95
2021-12-27 15:57:37.852897,98
2021-12-27 15:57:37.852904,100
2021-12-27 15:57:37.852910,95
2021-12-27 15:57:37.852916,93
2021-12-27 15:57:37.852922,95
2021-12-27 15:57:37.852929,86
2021-12-27 15:57:37.852935,72
2021-12-27 15:57:37.852941,65
2021-12-27 15:57:37.852948,63
2021-12-27 15:57:37.852954,60
2021-12-27 15:57:37.852960,60
2021-12-27 15:57:37.852966,70
2021-12-27 15:57:37.852973,84
2021-12-27 15:57:37.852979,86
2021-12-27 15:57:37.852985,81
2021-12-27 15:57:37.852992,86
2021-12-27 15:57:37.852998,93
2021-12-27 15:57:37.853004,91
2021-12-27 15:57:37.853011,91
2021-12-27 15:57:38.096567,91
2021-12-27 15:57:38.096587,91
2021-12-27 15:57:38.096594,93
2021-12-27 15:57:38.096601,126
2021-12-27 15:57:38.096608,189
2021-12-27 15:57:38.096614,144
2021-12-27 15:57:38.096621,-233
2021-12-27 15:57:38.096627,-976
2021-12-27 15:57:38.096634,-1520
2021-12-27 15:57:38.096640,-1004
2021-12-27 15:57:38.096647,119
2021-12-27 15:57:38.096653,406
2021-12-27 15:57:38.096660,84
2021-12-27 15:57:38.096666,142
2021-12-27 15:57:38.096673,287
2021-12-27 15:57:38.096679,196
2021-12-27 15:57:38.096686,163
2021-12-27 15:57:38.096692,203
2021-12-27 15:57:38.096699,170
2021-12-27 15:57:38.096706,137
2021-12-27 15:57:38.096712,147
2021-12-27 15:57:38.096719,135
2021-12-27 15:57:38.096725,114
2021-12-27 15:57:38.096732,105
2021-12-27 15:57:38.096738,100
2021-12-27 15:57:38.096745,84
2021-12-27 15:57:38.096751,65
2021-12-27 15:57:38.096758,49
2021-12-27 15:57:38.096769,37
2021-12-27 15:57:38.096775,21
2021-12-27 15:57:38.340306,7
2021-12-27 15:57:38.340323,-4
2021-12-27 15:57:38.340329,-7
2021-12-27 15:57:38.340333,-7
2021-12-27 15:57:38.340338,-7
2021-12-27 15:57:38.340343,-2
2021-12-27 15:57:38.340347,7
2021-12-27 15:57:38.340351,18
2021-12-27 15:57:38.340356,37
2021-12-27 15:57:38.340360,60
2021-12-27 15:57:38.340365,77
2021-12-27 15:57:38.340371,91
2021-12-27 15:57:38.340378,107
2021-12-27 15:57:38.340386,119
2021-12-27 15:57:38.340393,128
2021-12-27 15:57:38.340400,140
2021-12-27 15:57:38.340407,142
2021-12-27 15:57:38.340415,140
2021-12-27 15:57:38.340422,135
2021-12-27 15:57:38.340454,128
2021-12-27 15:57:38.340463,121
2021-12-27 15:57:38.340468,119
2021-12-27 15:57:38.340472,119
2021-12-27 15:57:38.340477,114
2021-12-27 15:57:38.340481,109
2021-12-27 15:57:38.340486,105
2021-12-27 15:57:38.340490,109
2021-12-27 15:57:38.340495,112
2021-12-27 15:57:38.340518,105
2021-12-27 15:57:38.340528,107
2021-12-27 15:57:38.583831,116
2021-12-27 15:57:38.583846,119
2021-12-27 15:57:38.583852,112
2021-12-27 15:57:38.583856,114
2021-12-27 15:57:38.583861,116
2021-12-27 15:57:38.583865,116
2021-12-27 15:57:38.583870,114
2021-12-27 15:57:38.583874,109
2021-12-27 15:57:38.583878,105
2021-12-27 15:57:38.583883,107
2021-12-27 15:57:38.583887,109
2021-12-27 15:57:38.583891,105
2021-12-27 15:57:38.583896,105
2021-12-27 15:57:38.583900,105
2021-12-27 15:57:38.583905,105
2021-12-27 15:57:38.583909,102
2021-12-27 15:57:38.583913,100
2021-12-27 15:57:38.583918,98
2021-12-27 15:57:38.583922,88
2021-12-27 15:57:38.583926,72
2021-12-27 15:57:38.583931,63
2021-12-27 15:57:38.583935,70
2021-12-27 15:57:38.583940,72
2021-12-27 15:57:38.583944,67
2021-12-27 15:57:38.583949,77
2021-12-27 15:57:38.583953,91
2021-12-27 15:57:38.583957,88
2021-12-27 15:57:38.583962,84
2021-12-27 15:57:38.583966,88
2021-12-27 15:57:38.583970,91
2021-12-27 15:57:38.827586,86
2021-12-27 15:57:38.827601,86
2021-12-27 15:57:38.827606,86
2021-12-27 15:57:38.827610,91
2021-12-27 15:57:38.827615,126
2021-12-27 15:57:38.827619,193
2021-12-27 15:57:38.827624,149
2021-12-27 15:57:38.827628,-249
2021-12-27 15:57:38.827633,-1025
2021-12-27 15:57:38.827637,-1576
2021-12-27 15:57:38.827642,-1027
2021-12-27 15:57:38.827646,112
2021-12-27 15:57:38.827651,387
2021-12-27 15:57:38.827655,63
2021-12-27 15:57:38.827659,133
2021-12-27 15:57:38.827664,277
2021-12-27 15:57:38.827668,184
2021-12-27 15:57:38.827673,154
2021-12-27 15:57:38.827677,196
2021-12-27 15:57:38.827682,165
2021-12-27 15:57:38.827686,137
2021-12-27 15:57:38.827690,144
2021-12-27 15:57:38.827695,130
2021-12-27 15:57:38.827699,112
2021-12-27 15:57:38.827703,100
2021-12-27 15:57:38.827708,86
2021-12-27 15:57:38.827712,74
2021-12-27 15:57:38.827717,67
2021-12-27 15:57:38.827721,51
2021-12-27 15:57:38.827725,39
2021-12-27 15:57:39.022839,32
2021-12-27 15:57:39.022864,23
2021-12-27 15:57:39.022873,16
2021-12-27 15:57:39.022881,14
2021-12-27 15:57:39.022888,16
2021-12-27 15:57:39.022895,21
2021-12-27 15:57:39.022902,28
2021-12-27 15:57:39.022908,39
2021-12-27 15:57:39.022914,51
2021-12-27 15:57:39.022922,60
2021-12-27 15:57:39.022929,67
2021-12-27 15:57:39.022936,74
2021-12-27 15:57:39.022942,93
2021-12-27 15:57:39.022949,107
2021-12-27 15:57:39.022955,114
2021-12-27 15:57:39.022960,123
2021-12-27 15:57:39.022965,130
2021-12-27 15:57:39.022970,130
2021-12-27 15:57:39.022975,126
2021-12-27 15:57:39.022980,126
2021-12-27 15:57:39.022985,121
2021-12-27 15:57:39.022990,114
2021-12-27 15:57:39.022995,112
2021-12-27 15:57:39.023000,107
2021-12-27 15:57:39.023005,105
2021-12-27 15:57:39.023010,102
2021-12-27 15:57:39.023015,100
2021-12-27 15:57:39.023020,98
2021-12-27 15:57:39.023025,102
2021-12-27 15:57:39.023030,105
2021-12-27 15:57:39.315567,100
2021-12-27 15:57:39.315594,102
2021-12-27 15:57:39.315609,107
2021-12-27 15:57:39.315621,109
2021-12-27 15:57:39.315634,109
2021-12-27 15:57:39.315646,112
2021-12-27 15:57:39.315658,112
2021-12-27 15:57:39.315669,109
2021-12-27 15:57:39.315681,109
2021-12-27 15:57:39.315693,112
2021-12-27 15:57:39.315704,109
2021-12-27 15:57:39.315716,105
2021-12-27 15:57:39.315728,102
2021-12-27 15:57:39.315740,102
2021-12-27 15:57:39.315752,100
2021-12-27 15:57:39.315763,98
2021-12-27 15:57:39.315774,102
2021-12-27 15:57:39.315783,105
2021-12-27 15:57:39.315789,100
2021-12-27 15:57:39.315795,98
2021-12-27 15:57:39.315802,98
2021-12-27 15:57:39.315808,84
2021-12-27 15:57:39.315814,65
2021-12-27 15:57:39.315821,63
2021-12-27 15:57:39.315827,72
2021-12-27 15:57:39.315833,74
2021-12-27 15:57:39.315840,79
2021-12-27 15:57:39.315846,95
2021-12-27 15:57:39.315852,102
2021-12-27 15:57:39.315859,102
2021-12-27 15:57:39.558703,100
2021-12-27 15:57:39.558726,100
2021-12-27 15:57:39.558734,93
2021-12-27 15:57:39.558741,88
2021-12-27 15:57:39.558747,86
2021-12-27 15:57:39.558754,86
2021-12-27 15:57:39.558760,98
2021-12-27 15:57:39.558766,142
2021-12-27 15:57:39.558772,196
2021-12-27 15:57:39.558779,107
2021-12-27 15:57:39.558785,-352
2021-12-27 15:57:39.558791,-1135
2021-12-27 15:57:39.558798,-1567
2021-12-27 15:57:39.558804,-878
2021-12-27 15:57:39.558810,193
2021-12-27 15:57:39.558816,329
2021-12-27 15:57:39.558823,42
2021-12-27 15:57:39.558829,175
2021-12-27 15:57:39.558835,291
2021-12-27 15:57:39.558842,186
2021-12-27 15:57:39.558848,170
2021-12-27 15:57:39.558854,200
2021-12-27 15:57:39.558860,158
2021-12-27 15:57:39.558867,137
2021-12-27 15:57:39.558873,147
2021-12-27 15:57:39.558879,133
2021-12-27 15:57:39.558885,112
2021-12-27 15:57:39.558892,105
2021-12-27 15:57:39.558898,93
2021-12-27 15:57:39.558904,79
2021-12-27 15:57:39.705277,70
2021-12-27 15:57:39.705302,63
2021-12-27 15:57:39.705314,51
2021-12-27 15:57:39.705324,35
2021-12-27 15:57:39.705333,23
2021-12-27 15:57:39.705343,21
2021-12-27 15:57:39.705353,18
2021-12-27 15:57:39.705362,18
2021-12-27 15:57:39.705372,21
2021-12-27 15:57:39.705381,23
2021-12-27 15:57:39.705391,30
2021-12-27 15:57:39.705400,46
2021-12-27 15:57:39.705409,60
2021-12-27 15:57:39.705418,70
2021-12-27 15:57:39.705427,88
2021-12-27 15:57:39.705437,100
2021-12-27 15:57:39.705447,98
2021-12-27 15:57:39.705457,102
2021-12-27 15:57:39.705466,119
2021-12-27 15:57:39.705476,130
2021-12-27 15:57:39.705486,128
2021-12-27 15:57:39.705496,121
2021-12-27 15:57:39.705506,119
2021-12-27 15:57:39.705515,114
2021-12-27 15:57:39.705522,109
2021-12-27 15:57:39.705527,107
2021-12-27 15:57:39.705532,102
2021-12-27 15:57:39.705537,95
2021-12-27 15:57:39.705543,93
2021-12-27 15:57:39.705548,95
2021-12-27 15:57:39.949336,95
2021-12-27 15:57:39.949357,98
2021-12-27 15:57:39.949364,100
2021-12-27 15:57:39.949371,100
2021-12-27 15:57:39.949377,100
2021-12-27 15:57:39.949384,100
2021-12-27 15:57:39.949390,100
2021-12-27 15:57:39.949396,102
2021-12-27 15:57:39.949403,105
2021-12-27 15:57:39.949409,102
2021-12-27 15:57:39.949415,105
2021-12-27 15:57:39.949422,109
2021-12-27 15:57:39.949428,109
2021-12-27 15:57:39.949434,109
2021-12-27 15:57:39.949440,109
2021-12-27 15:57:39.949447,112
2021-12-27 15:57:39.949453,107
2021-12-27 15:57:39.949459,95
2021-12-27 15:57:39.949466,91
2021-12-27 15:57:39.949472,102
2021-12-27 15:57:39.949478,105
2021-12-27 15:57:39.949485,98
2021-12-27 15:57:39.949491,100
2021-12-27 15:57:39.949500,102
2021-12-27 15:57:39.949507,84
2021-12-27 15:57:39.949513,63
2021-12-27 15:57:39.949520,63
2021-12-27 15:57:39.949526,74
2021-12-27 15:57:39.949532,74
2021-12-27 15:57:39.949538,77
2021-12-27 15:57:40.193066,93
2021-12-27 15:57:40.193093,100
2021-12-27 15:57:40.193106,93
2021-12-27 15:57:40.193117,93
2021-12-27 15:57:40.193128,95
2021-12-27 15:57:40.193138,93
2021-12-27 15:57:40.193149,91
2021-12-27 15:57:40.193160,86
2021-12-27 15:57:40.193171,86
2021-12-27 15:57:40.193181,95
2021-12-27 15:57:40.193192,135
2021-12-27 15:57:40.193203,196
2021-12-27 15:57:40.193214,128
2021-12-27 15:57:40.193225,-282
2021-12-27 15:57:40.193236,-1001
2021-12-27 15:57:40.193247,-1429
2021-12-27 15:57:40.193258,-838
2021-12-27 15:57:40.193268,172
2021-12-27 15:57:40.193279,345
2021-12-27 15:57:40.193290,67
2021-12-27 15:57:40.193301,158
2021-12-27 15:57:40.193312,270
2021-12-27 15:57:40.193322,177
2021-12-27 15:57:40.193333,161
2021-12-27 15:57:40.193344,196
2021-12-27 15:57:40.193355,161
2021-12-27 15:57:40.193366,135
2021-12-27 15:57:40.193378,140
2021-12-27 15:57:40.193405,130
2021-12-27 15:57:40.193418,112
2021-12-27 15:57:40.387892,100
2021-12-27 15:57:40.387908,88
2021-12-27 15:57:40.387914,72
2021-12-27 15:57:40.387918,58
2021-12-27 15:57:40.387923,51
2021-12-27 15:57:40.387927,39
2021-12-27 15:57:40.387932,30
2021-12-27 15:57:40.387937,21
2021-12-27 15:57:40.387941,11
2021-12-27 15:57:40.387946,9
2021-12-27 15:57:40.387951,18
2021-12-27 15:57:40.387955,23
2021-12-27 15:57:40.387960,25
2021-12-27 15:57:40.387964,39
2021-12-27 15:57:40.387969,56
2021-12-27 15:57:40.387973,58
2021-12-27 15:57:40.387978,67
2021-12-27 15:57:40.387982,86
2021-12-27 15:57:40.387986,98
2021-12-27 15:57:40.387991,107
2021-12-27 15:57:40.387995,116
2021-12-27 15:57:40.388000,119
2021-12-27 15:57:40.388004,121
2021-12-27 15:57:40.388008,126
2021-12-27 15:57:40.388013,126
2021-12-27 15:57:40.388017,121
2021-12-27 15:57:40.388022,119
2021-12-27 15:57:40.388026,114
2021-12-27 15:57:40.388030,105
2021-12-27 15:57:40.388035,102
2021-12-27 15:57:40.680076,107
2021-12-27 15:57:40.680089,107
2021-12-27 15:57:40.680095,107
2021-12-27 15:57:40.680099,105
2021-12-27 15:57:40.680104,100
2021-12-27 15:57:40.680108,102
2021-12-27 15:57:40.680113,109
2021-12-27 15:57:40.680117,109
2021-12-27 15:57:40.680122,109
2021-12-27 15:57:40.680126,109
2021-12-27 15:57:40.680131,107
2021-12-27 15:57:40.680135,107
2021-12-27 15:57:40.680140,109
2021-12-27 15:57:40.680144,112
2021-12-27 15:57:40.680148,109
2021-12-27 15:57:40.680153,109
2021-12-27 15:57:40.680157,109
2021-12-27 15:57:40.680162,112
2021-12-27 15:57:40.680166,114
2021-12-27 15:57:40.680171,112
2021-12-27 15:57:40.680175,109
2021-12-27 15:57:40.680180,114
2021-12-27 15:57:40.680184,114
2021-12-27 15:57:40.680189,109
2021-12-27 15:57:40.680193,105
2021-12-27 15:57:40.680198,107
2021-12-27 15:57:40.680202,107
2021-12-27 15:57:40.680207,91
2021-12-27 15:57:40.680211,67
2021-12-27 15:57:40.680216,49
2021-12-27 15:57:40.875240,46
2021-12-27 15:57:40.875255,56
2021-12-27 15:57:40.875261,60
2021-12-27 15:57:40.875266,67
2021-12-27 15:57:40.875270,79
2021-12-27 15:57:40.875274,81
2021-12-27 15:57:40.875279,77
2021-12-27 15:57:40.875283,74
2021-12-27 15:57:40.875288,72
2021-12-27 15:57:40.875292,72
2021-12-27 15:57:40.875297,77
2021-12-27 15:57:40.875301,77
2021-12-27 15:57:40.875305,74
2021-12-27 15:57:40.875310,98
2021-12-27 15:57:40.875314,156
2021-12-27 15:57:40.875319,179
2021-12-27 15:57:40.875323,-18
2021-12-27 15:57:40.875328,-574
2021-12-27 15:57:40.875332,-1247
2021-12-27 15:57:40.875336,-1251
2021-12-27 15:57:40.875341,-322
2021-12-27 15:57:40.875345,357
2021-12-27 15:57:40.875350,175
2021-12-27 15:57:40.875354,49
2021-12-27 15:57:40.875359,233
2021-12-27 15:57:40.875363,233
2021-12-27 15:57:40.875367,147
2021-12-27 15:57:40.875372,170
2021-12-27 15:57:40.875376,175
2021-12-27 15:57:40.875381,135
2021-12-27 15:57:41.118825,130
2021-12-27 15:57:41.118839,130
2021-12-27 15:57:41.118845,109
2021-12-27 15:57:41.118849,98
2021-12-27 15:57:41.118854,93
2021-12-27 15:57:41.118858,81
2021-12-27 15:57:41.118862,65
2021-12-27 15:57:41.118867,51
2021-12-27 15:57:41.118871,42
2021-12-27 15:57:41.118876,30
2021-12-27 15:57:41.118880,21
2021-12-27 15:57:41.118885,18
2021-12-27 15:57:41.118889,14
2021-12-27 15:57:41.118893,7
2021-12-27 15:57:41.118898,11
2021-12-27 15:57:41.118902,21
2021-12-27 15:57:41.118907,32
2021-12-27 15:57:41.118911,44
2021-12-27 15:57:41.118915,56
2021-12-27 15:57:41.118920,65
2021-12-27 15:57:41.118924,74
2021-12-27 15:57:41.118929,88
2021-12-27 15:57:41.118933,95
2021-12-27 15:57:41.118937,100
2021-12-27 15:57:41.118942,114
2021-12-27 15:57:41.118946,128
2021-12-27 15:57:41.118951,130
2021-12-27 15:57:41.118955,126
2021-12-27 15:57:41.118959,121
2021-12-27 15:57:41.118964,119
2021-12-27 15:57:41.313882,116
2021-12-27 15:57:41.313897,114
2021-12-27 15:57:41.313902,107
2021-12-27 15:57:41.313907,95
2021-12-27 15:57:41.313911,98
2021-12-27 15:57:41.313916,100
2021-12-27 15:57:41.313920,100
2021-12-27 15:57:41.313925,100
2021-12-27 15:57:41.313929,102
2021-12-27 15:57:41.313934,100
2021-12-27 15:57:41.313938,95
2021-12-27 15:57:41.313943,98
2021-12-27 15:57:41.313947,102
2021-12-27 15:57:41.313952,102
2021-12-27 15:57:41.313956,100
2021-12-27 15:57:41.313960,102
2021-12-27 15:57:41.313965,105
2021-12-27 15:57:41.313969,102
2021-12-27 15:57:41.313974,102
2021-12-27 15:57:41.313978,109
2021-12-27 15:57:41.313983,109
2021-12-27 15:57:41.313987,105
2021-12-27 15:57:41.313991,102
2021-12-27 15:57:41.313996,107
2021-12-27 15:57:41.314000,109
2021-12-27 15:57:41.314004,107
2021-12-27 15:57:41.314009,100
2021-12-27 15:57:41.314013,98
2021-12-27 15:57:41.314018,98
2021-12-27 15:57:41.314022,98
2021-12-27 15:57:41.605405,88
2021-12-27 15:57:41.605432,72
2021-12-27 15:57:41.605446,53
2021-12-27 15:57:41.605459,46
2021-12-27 15:57:41.605471,51
2021-12-27 15:57:41.605483,51
2021-12-27 15:57:41.605496,56
2021-12-27 15:57:41.605509,72
2021-12-27 15:57:41.605522,81
2021-12-27 15:57:41.605534,77
2021-12-27 15:57:41.605546,74
2021-12-27 15:57:41.605557,74
2021-12-27 15:57:41.605570,72
2021-12-27 15:57:41.605582,77
2021-12-27 15:57:41.605593,79
2021-12-27 15:57:41.605604,79
2021-12-27 15:57:41.605615,88
2021-12-27 15:57:41.605626,130
2021-12-27 15:57:41.605637,172
2021-12-27 15:57:41.605649,77
2021-12-27 15:57:41.605661,-324
2021-12-27 15:57:41.605673,-973
2021-12-27 15:57:41.605685,-1279
2021-12-27 15:57:41.605696,-649
2021-12-27 15:57:41.605708,214
2021-12-27 15:57:41.605720,280
2021-12-27 15:57:41.605731,56
2021-12-27 15:57:41.605742,172
2021-12-27 15:57:41.605754,256
2021-12-27 15:57:41.605766,177
2021-12-27 15:57:41.801463,168
2021-12-27 15:57:41.801479,189
2021-12-27 15:57:41.801484,156
2021-12-27 15:57:41.801489,133
2021-12-27 15:57:41.801493,137
2021-12-27 15:57:41.801498,121
2021-12-27 15:57:41.801502,100
2021-12-27 15:57:41.801507,91
2021-12-27 15:57:41.801511,77
2021-12-27 15:57:41.801515,63
2021-12-27 15:57:41.801520,56
2021-12-27 15:57:41.801524,46
2021-12-27 15:57:41.801529,32
2021-12-27 15:57:41.801533,21
2021-12-27 15:57:41.801537,16
2021-12-27 15:57:41.801542,16
2021-12-27 15:57:41.801546,18
2021-12-27 15:57:41.801551,25
2021-12-27 15:57:41.801555,30
2021-12-27 15:57:41.801559,35
2021-12-27 15:57:41.801564,44
2021-12-27 15:57:41.801568,53
2021-12-27 15:57:41.801573,60
2021-12-27 15:57:41.801577,65
2021-12-27 15:57:41.801581,74
2021-12-27 15:57:41.801586,84
2021-12-27 15:57:41.801590,91
2021-12-27 15:57:41.801595,100
2021-12-27 15:57:41.801599,116
2021-12-27 15:57:41.801603,128
2021-12-27 15:57:41.996424,130
2021-12-27 15:57:41.996439,128
2021-12-27 15:57:41.996444,121
2021-12-27 15:57:41.996449,116
2021-12-27 15:57:41.996453,116
2021-12-27 15:57:41.996458,107
2021-12-27 15:57:41.996462,98
2021-12-27 15:57:41.996467,98
2021-12-27 15:57:41.996471,102
2021-12-27 15:57:41.996476,98
2021-12-27 15:57:41.996480,95
2021-12-27 15:57:41.996485,98
2021-12-27 15:57:41.996489,102
2021-12-27 15:57:41.996494,100
2021-12-27 15:57:41.996498,95
2021-12-27 15:57:41.996502,95
2021-12-27 15:57:41.996507,102
2021-12-27 15:57:41.996514,102
2021-12-27 15:57:41.996518,93
2021-12-27 15:57:41.996523,98
2021-12-27 15:57:41.996527,109
2021-12-27 15:57:41.996532,109
2021-12-27 15:57:41.996536,105
2021-12-27 15:57:41.996541,107
2021-12-27 15:57:41.996545,107
2021-12-27 15:57:41.996549,100
2021-12-27 15:57:41.996554,100
2021-12-27 15:57:41.996558,102
2021-12-27 15:57:41.996563,98
2021-12-27 15:57:41.996567,93
2021-12-27 15:57:42.240268,86
2021-12-27 15:57:42.240316,70
2021-12-27 15:57:42.240322,51
2021-12-27 15:57:42.240327,49
2021-12-27 15:57:42.240332,58
2021-12-27 15:57:42.240338,63
2021-12-27 15:57:42.240343,67
2021-12-27 15:57:42.240348,79
2021-12-27 15:57:42.240353,84
2021-12-27 15:57:42.240358,77
2021-12-27 15:57:42.240363,72
2021-12-27 15:57:42.240368,74
2021-12-27 15:57:42.240373,72
2021-12-27 15:57:42.240378,67
2021-12-27 15:57:42.240383,70
2021-12-27 15:57:42.240388,72
2021-12-27 15:57:42.240394,88
2021-12-27 15:57:42.240399,140
2021-12-27 15:57:42.240404,158
2021-12-27 15:57:42.240409,-42
2021-12-27 15:57:42.240414,-562
2021-12-27 15:57:42.240419,-1151
2021-12-27 15:57:42.240425,-1086
2021-12-27 15:57:42.240430,-224
2021-12-27 15:57:42.240435,324
2021-12-27 15:57:42.240440,142
2021-12-27 15:57:42.240445,67
2021-12-27 15:57:42.240450,224
2021-12-27 15:57:42.240455,200
2021-12-27 15:57:42.240461,142
2021-12-27 15:57:42.484287,177
2021-12-27 15:57:42.484308,172
2021-12-27 15:57:42.484315,130
2021-12-27 15:57:42.484322,126
2021-12-27 15:57:42.484328,126
2021-12-27 15:57:42.484335,107
2021-12-27 15:57:42.484341,98
2021-12-27 15:57:42.484348,91
2021-12-27 15:57:42.484354,70
2021-12-27 15:57:42.484360,51
2021-12-27 15:57:42.484367,49
2021-12-27 15:57:42.484373,39
2021-12-27 15:57:42.484380,28
2021-12-27 15:57:42.484386,21
2021-12-27 15:57:42.484392,18
2021-12-27 15:57:42.484399,18
2021-12-27 15:57:42.484405,25
2021-12-27 15:57:42.484411,28
2021-12-27 15:57:42.484418,28
2021-12-27 15:57:42.484424,42
2021-12-27 15:57:42.484430,51
2021-12-27 15:57:42.484437,49
2021-12-27 15:57:42.484443,53
2021-12-27 15:57:42.484449,67
2021-12-27 15:57:42.484456,79
2021-12-27 15:57:42.484462,95
2021-12-27 15:57:42.484468,112
2021-12-27 15:57:42.484475,121
2021-12-27 15:57:42.484481,130
2021-12-27 15:57:42.484487,142
2021-12-27 15:57:42.728010,140
2021-12-27 15:57:42.728031,130
2021-12-27 15:57:42.728039,128
2021-12-27 15:57:42.728046,130
2021-12-27 15:57:42.728052,126
2021-12-27 15:57:42.728059,121
2021-12-27 15:57:42.728065,121
2021-12-27 15:57:42.728072,116
2021-12-27 15:57:42.728078,109
2021-12-27 15:57:42.728085,112
2021-12-27 15:57:42.728091,116
2021-12-27 15:57:42.728098,107
2021-12-27 15:57:42.728104,98
2021-12-27 15:57:42.728111,100
2021-12-27 15:57:42.728118,105
2021-12-27 15:57:42.728124,107
2021-12-27 15:57:42.728131,112
2021-12-27 15:57:42.728137,109
2021-12-27 15:57:42.728144,112
2021-12-27 15:57:42.728150,114
2021-12-27 15:57:42.728157,105
2021-12-27 15:57:42.728164,105
2021-12-27 15:57:42.728170,109
2021-12-27 15:57:42.728177,109
2021-12-27 15:57:42.728183,107
2021-12-27 15:57:42.728189,112
2021-12-27 15:57:42.728196,107
2021-12-27 15:57:42.728202,86
2021-12-27 15:57:42.728209,63
2021-12-27 15:57:42.728215,58
2021-12-27 15:57:42.923130,70
2021-12-27 15:57:42.923159,74
2021-12-27 15:57:42.923173,74
2021-12-27 15:57:42.923186,84
2021-12-27 15:57:42.923198,95
2021-12-27 15:57:42.923211,95
2021-12-27 15:57:42.923222,93
2021-12-27 15:57:42.923235,91
2021-12-27 15:57:42.923247,88
2021-12-27 15:57:42.923259,86
2021-12-27 15:57:42.923271,84
2021-12-27 15:57:42.923283,88
2021-12-27 15:57:42.923295,100
2021-12-27 15:57:42.923306,137
2021-12-27 15:57:42.923349,170
2021-12-27 15:57:42.923360,67
2021-12-27 15:57:42.923372,-324
2021-12-27 15:57:42.923384,-941
2021-12-27 15:57:42.923395,-1214
2021-12-27 15:57:42.923407,-597
2021-12-27 15:57:42.923419,200
2021-12-27 15:57:42.923430,247
2021-12-27 15:57:42.923442,58
2021-12-27 15:57:42.923453,165
2021-12-27 15:57:42.923463,228
2021-12-27 15:57:42.923475,163
2021-12-27 15:57:42.923486,163
2021-12-27 15:57:42.923497,179
2021-12-27 15:57:42.923509,147
2021-12-27 15:57:42.923520,130
2021-12-27 15:57:43.166727,133
2021-12-27 15:57:43.166748,121
2021-12-27 15:57:43.166756,107
2021-12-27 15:57:43.166763,98
2021-12-27 15:57:43.166769,81
2021-12-27 15:57:43.166776,65
2021-12-27 15:57:43.166782,56
2021-12-27 15:57:43.166788,49
2021-12-27 15:57:43.166795,39
2021-12-27 15:57:43.166801,28
2021-12-27 15:57:43.166807,23
2021-12-27 15:57:43.166814,23
2021-12-27 15:57:43.166820,25
2021-12-27 15:57:43.166826,32
2021-12-27 15:57:43.166832,35
2021-12-27 15:57:43.166839,35
2021-12-27 15:57:43.166845,39
2021-12-27 15:57:43.166851,44
2021-12-27 15:57:43.166858,49
2021-12-27 15:57:43.166864,60
2021-12-27 15:57:43.166871,74
2021-12-27 15:57:43.166877,88
2021-12-27 15:57:43.166884,98
2021-12-27 15:57:43.166890,114
2021-12-27 15:57:43.166896,126
2021-12-27 15:57:43.166903,133
2021-12-27 15:57:43.166909,133
2021-12-27 15:57:43.166915,126
2021-12-27 15:57:43.166922,116
2021-12-27 15:57:43.166928,114
2021-12-27 15:57:43.410564,116
2021-12-27 15:57:43.410585,114
2021-12-27 15:57:43.410593,116
2021-12-27 15:57:43.410600,119
2021-12-27 15:57:43.410606,109
2021-12-27 15:57:43.410613,102
2021-12-27 15:57:43.410619,105
2021-12-27 15:57:43.410626,109
2021-12-27 15:57:43.410632,112
2021-12-27 15:57:43.410639,112
2021-12-27 15:57:43.410645,107
2021-12-27 15:57:43.410652,107
2021-12-27 15:57:43.410658,107
2021-12-27 15:57:43.410664,109
2021-12-27 15:57:43.410671,109
2021-12-27 15:57:43.410677,109
2021-12-27 15:57:43.410684,107
2021-12-27 15:57:43.410690,105
2021-12-27 15:57:43.410697,105
2021-12-27 15:57:43.410703,109
2021-12-27 15:57:43.410710,102
2021-12-27 15:57:43.410716,86
2021-12-27 15:57:43.410723,65
2021-12-27 15:57:43.410729,58
2021-12-27 15:57:43.410735,67
2021-12-27 15:57:43.410742,79
2021-12-27 15:57:43.410748,88
2021-12-27 15:57:43.410804,100
2021-12-27 15:57:43.410812,105
2021-12-27 15:57:43.410818,102
2021-12-27 15:57:43.701332,98
2021-12-27 15:57:43.701347,95
2021-12-27 15:57:43.701353,98
2021-12-27 15:57:43.701358,88
2021-12-27 15:57:43.701362,81
2021-12-27 15:57:43.701367,84
2021-12-27 15:57:43.701371,95
2021-12-27 15:57:43.701375,137
2021-12-27 15:57:43.701380,170
2021-12-27 15:57:43.701384,42
2021-12-27 15:57:43.701389,-399
2021-12-27 15:57:43.701393,-1027
2021-12-27 15:57:43.701397,-1212
2021-12-27 15:57:43.701402,-502
2021-12-27 15:57:43.701406,245
2021-12-27 15:57:43.701410,210
2021-12-27 15:57:43.701415,44
2021-12-27 15:57:43.701419,182
2021-12-27 15:57:43.701424,221
2021-12-27 15:57:43.701428,147
2021-12-27 15:57:43.701432,154
2021-12-27 15:57:43.701437,165
2021-12-27 15:57:43.701441,128
2021-12-27 15:57:43.701445,112
2021-12-27 15:57:43.701450,116
2021-12-27 15:57:43.701454,105
2021-12-27 15:57:43.701462,86
2021-12-27 15:57:43.701466,72
2021-12-27 15:57:43.701471,58
2021-12-27 15:57:43.701475,49
2021-12-27 15:57:43.898005,44
2021-12-27 15:57:43.898021,28
2021-12-27 15:57:43.898028,11
2021-12-27 15:57:43.898033,11
2021-12-27 15:57:43.898038,14
2021-12-27 15:57:43.898043,7
2021-12-27 15:57:43.898048,0
2021-12-27 15:57:43.898054,7
2021-12-27 15:57:43.898059,14
2021-12-27 15:57:43.898064,14
2021-12-27 15:57:43.898069,23
2021-12-27 15:57:43.898074,39
2021-12-27 15:57:43.898079,46
2021-12-27 15:57:43.898084,53
2021-12-27 15:57:43.898089,65
2021-12-27 15:57:43.898094,84
2021-12-27 15:57:43.898099,95
2021-12-27 15:57:43.898104,105
2021-12-27 15:57:43.898109,119
2021-12-27 15:57:43.898114,123
2021-12-27 15:57:43.898119,121
2021-12-27 15:57:43.898125,121
2021-12-27 15:57:43.898130,116
2021-12-27 15:57:43.898135,107
2021-12-27 15:57:43.898140,109
2021-12-27 15:57:43.898145,112
2021-12-27 15:57:43.898150,107
2021-12-27 15:57:43.898155,100
2021-12-27 15:57:43.898160,95
2021-12-27 15:57:43.898165,102
2021-12-27 15:57:44.141757,112
2021-12-27 15:57:44.141777,116
2021-12-27 15:57:44.141785,116
2021-12-27 15:57:44.141792,114
2021-12-27 15:57:44.141798,112
2021-12-27 15:57:44.141805,112
2021-12-27 15:57:44.141811,107
2021-12-27 15:57:44.141817,109
2021-12-27 15:57:44.141824,126
2021-12-27 15:57:44.141831,128
2021-12-27 15:57:44.141837,114
2021-12-27 15:57:44.141843,107
2021-12-27 15:57:44.141850,93
2021-12-27 15:57:44.141856,84
2021-12-27 15:57:44.141862,93
2021-12-27 15:57:44.141869,102
2021-12-27 15:57:44.141876,102
2021-12-27 15:57:44.141887,107
2021-12-27 15:57:44.141899,114
2021-12-27 15:57:44.141907,112
2021-12-27 15:57:44.141914,109
2021-12-27 15:57:44.141921,109
2021-12-27 15:57:44.141927,107
2021-12-27 15:57:44.141933,102
2021-12-27 15:57:44.141939,102
2021-12-27 15:57:44.141946,105
2021-12-27 15:57:44.141952,114
2021-12-27 15:57:44.141958,158
2021-12-27 15:57:44.141965,219
2021-12-27 15:57:44.141985,116
2021-12-27 15:57:44.336754,-359
2021-12-27 15:57:44.336775,-1062
2021-12-27 15:57:44.336783,-1258
2021-12-27 15:57:44.336790,-434
2021-12-27 15:57:44.336797,399
2021-12-27 15:57:44.336803,280
2021-12-27 15:57:44.336809,42
2021-12-27 15:57:44.336816,198
2021-12-27 15:57:44.336822,219
2021-12-27 15:57:44.336829,121
2021-12-27 15:57:44.336835,147
2021-12-27 15:57:44.336841,156
2021-12-27 15:57:44.336848,109
2021-12-27 15:57:44.336854,98
2021-12-27 15:57:44.336872,102
2021-12-27 15:57:44.336879,81
2021-12-27 15:57:44.336886,65
2021-12-27 15:57:44.336892,58
2021-12-27 15:57:44.336898,44
2021-12-27 15:57:44.336905,28
2021-12-27 15:57:44.336911,21
2021-12-27 15:57:44.336918,16
2021-12-27 15:57:44.336924,7
2021-12-27 15:57:44.336931,0
2021-12-27 15:57:44.336937,0
2021-12-27 15:57:44.336944,0
2021-12-27 15:57:44.336950,2
2021-12-27 15:57:44.336957,9
2021-12-27 15:57:44.336963,18
2021-12-27 15:57:44.336970,25
2021-12-27 15:57:44.580572,28
2021-12-27 15:57:44.580593,32
2021-12-27 15:57:44.580600,39
2021-12-27 15:57:44.580607,46
2021-12-27 15:57:44.580613,60
2021-12-27 15:57:44.580620,81
2021-12-27 15:57:44.580626,98
2021-12-27 15:57:44.580633,112
2021-12-27 15:57:44.580639,121
2021-12-27 15:57:44.580645,126
2021-12-27 15:57:44.580652,123
2021-12-27 15:57:44.580658,123
2021-12-27 15:57:44.580665,126
2021-12-27 15:57:44.580671,116
2021-12-27 15:57:44.580677,107
2021-12-27 15:57:44.580684,105
2021-12-27 15:57:44.580690,107
2021-12-27 15:57:44.580696,102
2021-12-27 15:57:44.580703,98
2021-12-27 15:57:44.580709,100
2021-12-27 15:57:44.580715,100
2021-12-27 15:57:44.580722,98
2021-12-27 15:57:44.580735,95
2021-12-27 15:57:44.580744,100
2021-12-27 15:57:44.580756,109
2021-12-27 15:57:44.580768,114
2021-12-27 15:57:44.580815,107
2021-12-27 15:57:44.580829,107
2021-12-27 15:57:44.580836,116
2021-12-27 15:57:44.580842,121
2021-12-27 15:57:44.824239,116
2021-12-27 15:57:44.824260,112
2021-12-27 15:57:44.824268,102
2021-12-27 15:57:44.824275,91
2021-12-27 15:57:44.824282,91
2021-12-27 15:57:44.824288,100
2021-12-27 15:57:44.824294,112
2021-12-27 15:57:44.824301,119
2021-12-27 15:57:44.824307,121
2021-12-27 15:57:44.824314,116
2021-12-27 15:57:44.824320,109
2021-12-27 15:57:44.824327,112
2021-12-27 15:57:44.824333,112
2021-12-27 15:57:44.824339,105
2021-12-27 15:57:44.824346,102
2021-12-27 15:57:44.824352,102
2021-12-27 15:57:44.824359,126
2021-12-27 15:57:44.824365,191
2021-12-27 15:57:44.824371,207
2021-12-27 15:57:44.824378,-67
2021-12-27 15:57:44.824384,-763
2021-12-27 15:57:44.824391,-1494
2021-12-27 15:57:44.824397,-1331
2021-12-27 15:57:44.824403,-203
2021-12-27 15:57:44.824410,432
2021-12-27 15:57:44.824416,163
2021-12-27 15:57:44.824423,86
2021-12-27 15:57:44.824429,289
2021-12-27 15:57:44.824435,252
2021-12-27 15:57:44.824442,168
2021-12-27 15:57:45.019494,212
2021-12-27 15:57:45.019516,210
2021-12-27 15:57:45.019524,161
2021-12-27 15:57:45.019530,154
2021-12-27 15:57:45.019537,149
2021-12-27 15:57:45.019574,126
2021-12-27 15:57:45.019585,114
2021-12-27 15:57:45.019592,107
2021-12-27 15:57:45.019598,86
2021-12-27 15:57:45.019605,72
2021-12-27 15:57:45.019611,65
2021-12-27 15:57:45.019617,49
2021-12-27 15:57:45.019624,32
2021-12-27 15:57:45.019630,28
2021-12-27 15:57:45.019636,25
2021-12-27 15:57:45.019643,21
2021-12-27 15:57:45.019649,25
2021-12-27 15:57:45.019656,32
2021-12-27 15:57:45.019662,35
2021-12-27 15:57:45.019668,42
2021-12-27 15:57:45.019675,58
2021-12-27 15:57:45.019681,67
2021-12-27 15:57:45.019687,74
2021-12-27 15:57:45.019694,91
2021-12-27 15:57:45.019700,100
2021-12-27 15:57:45.019706,102
2021-12-27 15:57:45.019713,114
2021-12-27 15:57:45.019719,126
2021-12-27 15:57:45.019726,128
2021-12-27 15:57:45.019732,133
2021-12-27 15:57:45.263059,133
2021-12-27 15:57:45.263081,123
2021-12-27 15:57:45.263089,114
2021-12-27 15:57:45.263096,112
2021-12-27 15:57:45.263102,109
2021-12-27 15:57:45.263109,107
2021-12-27 15:57:45.263115,107
2021-12-27 15:57:45.263121,102
2021-12-27 15:57:45.263128,95
2021-12-27 15:57:45.263134,93
2021-12-27 15:57:45.263141,93
2021-12-27 15:57:45.263147,100
2021-12-27 15:57:45.263160,102
2021-12-27 15:57:45.263171,95
2021-12-27 15:57:45.263224,95
2021-12-27 15:57:45.263240,107
2021-12-27 15:57:45.263252,112
2021-12-27 15:57:45.263263,109
2021-12-27 15:57:45.263274,102
2021-12-27 15:57:45.263285,91
2021-12-27 15:57:45.263297,81
2021-12-27 15:57:45.263308,79
2021-12-27 15:57:45.263320,81
2021-12-27 15:57:45.263333,93
2021-12-27 15:57:45.263345,105
2021-12-27 15:57:45.263357,107
2021-12-27 15:57:45.263368,109
2021-12-27 15:57:45.263380,112
2021-12-27 15:57:45.263391,114
2021-12-27 15:57:45.263403,114
2021-12-27 15:57:45.458077,116
2021-12-27 15:57:45.458098,114
2021-12-27 15:57:45.458106,109
2021-12-27 15:57:45.458113,109
2021-12-27 15:57:45.458119,130
2021-12-27 15:57:45.458126,196
2021-12-27 15:57:45.458132,226
2021-12-27 15:57:45.458138,-14
2021-12-27 15:57:45.458145,-691
2021-12-27 15:57:45.458151,-1464
2021-12-27 15:57:45.458158,-1408
2021-12-27 15:57:45.458164,-308
2021-12-27 15:57:45.458170,434
2021-12-27 15:57:45.458177,205
2021-12-27 15:57:45.458183,79
2021-12-27 15:57:45.458190,287
2021-12-27 15:57:45.458196,275
2021-12-27 15:57:45.458203,186
2021-12-27 15:57:45.458209,219
2021-12-27 15:57:45.458216,219
2021-12-27 15:57:45.458222,175
2021-12-27 15:57:45.458228,170
2021-12-27 15:57:45.458235,168
2021-12-27 15:57:45.458241,149
2021-12-27 15:57:45.458248,135
2021-12-27 15:57:45.458254,123
2021-12-27 15:57:45.458260,109
2021-12-27 15:57:45.458267,95
2021-12-27 15:57:45.458273,81
2021-12-27 15:57:45.458280,72
2021-12-27 15:57:45.798341,67
2021-12-27 15:57:45.798361,58
2021-12-27 15:57:45.798369,51
2021-12-27 15:57:45.798375,46
2021-12-27 15:57:45.798382,42
2021-12-27 15:57:45.798388,44
2021-12-27 15:57:45.798394,56
2021-12-27 15:57:45.798401,63
2021-12-27 15:57:45.798407,72
2021-12-27 15:57:45.798413,84
2021-12-27 15:57:45.798420,88
2021-12-27 15:57:45.798426,95
2021-12-27 15:57:45.798433,107
2021-12-27 15:57:45.798439,114
2021-12-27 15:57:45.798445,119
2021-12-27 15:57:45.798452,121
2021-12-27 15:57:45.798458,126
2021-12-27 15:57:45.798464,130
2021-12-27 15:57:45.798470,130
2021-12-27 15:57:45.798477,126
2021-12-27 15:57:45.798483,121
2021-12-27 15:57:45.798489,114
2021-12-27 15:57:45.798496,105
2021-12-27 15:57:45.798502,98
2021-12-27 15:57:45.798508,93
2021-12-27 15:57:45.798515,91
2021-12-27 15:57:45.798521,88
2021-12-27 15:57:45.798527,91
2021-12-27 15:57:45.798534,91
2021-12-27 15:57:45.798540,91
2021-12-27 15:57:45.946317,93
2021-12-27 15:57:45.946338,95
2021-12-27 15:57:45.946345,95
2021-12-27 15:57:45.946352,98
2021-12-27 15:57:45.946358,105
2021-12-27 15:57:45.946365,102
2021-12-27 15:57:45.946371,93
2021-12-27 15:57:45.946377,91
2021-12-27 15:57:45.946384,98
2021-12-27 15:57:45.946390,102
2021-12-27 15:57:45.946396,102
2021-12-27 15:57:45.946403,98
2021-12-27 15:57:45.946409,84
2021-12-27 15:57:45.946416,67
2021-12-27 15:57:45.946422,65
2021-12-27 15:57:45.946428,79
2021-12-27 15:57:45.946435,86
2021-12-27 15:57:45.946441,93
2021-12-27 15:57:45.946447,105
2021-12-27 15:57:45.946453,109
2021-12-27 15:57:45.946460,107
2021-12-27 15:57:45.946466,102
2021-12-27 15:57:45.946472,102
2021-12-27 15:57:45.946478,105
2021-12-27 15:57:45.946485,107
2021-12-27 15:57:45.946491,107
2021-12-27 15:57:45.946497,105
2021-12-27 15:57:45.946503,119
2021-12-27 15:57:45.946510,175
2021-12-27 15:57:45.946516,235
2021-12-27 15:57:46.189869,105
2021-12-27 15:57:46.189899,-439
2021-12-27 15:57:46.189910,-1254
2021-12-27 15:57:46.189920,-1525
2021-12-27 15:57:46.189929,-637
2021-12-27 15:57:46.189939,336
2021-12-27 15:57:46.189949,294
2021-12-27 15:57:46.189959,51
2021-12-27 15:57:46.189968,235
2021-12-27 15:57:46.189978,298
2021-12-27 15:57:46.189988,186
2021-12-27 15:57:46.189997,200
2021-12-27 15:57:46.190007,226
2021-12-27 15:57:46.190016,177
2021-12-27 15:57:46.190026,161
2021-12-27 15:57:46.190036,163
2021-12-27 15:57:46.190045,142
2021-12-27 15:57:46.190055,130
2021-12-27 15:57:46.190064,123
2021-12-27 15:57:46.190074,107
2021-12-27 15:57:46.190084,95
2021-12-27 15:57:46.190093,91
2021-12-27 15:57:46.190103,77
2021-12-27 15:57:46.190112,63
2021-12-27 15:57:46.190122,53
2021-12-27 15:57:46.190132,46
2021-12-27 15:57:46.190141,42
2021-12-27 15:57:46.190151,42
2021-12-27 15:57:46.190161,49
2021-12-27 15:57:46.190170,53
2021-12-27 15:57:46.384674,56
2021-12-27 15:57:46.384719,60
2021-12-27 15:57:46.384728,70
2021-12-27 15:57:46.384736,77
2021-12-27 15:57:46.384742,86
2021-12-27 15:57:46.384749,98
2021-12-27 15:57:46.384755,107
2021-12-27 15:57:46.384761,116
2021-12-27 15:57:46.384768,123
2021-12-27 15:57:46.384774,126
2021-12-27 15:57:46.384781,126
2021-12-27 15:57:46.384787,121
2021-12-27 15:57:46.384793,112
2021-12-27 15:57:46.384800,105
2021-12-27 15:57:46.384806,100
2021-12-27 15:57:46.384813,93
2021-12-27 15:57:46.384819,88
2021-12-27 15:57:46.384825,86
2021-12-27 15:57:46.384832,84
2021-12-27 15:57:46.384838,86
2021-12-27 15:57:46.384845,84
2021-12-27 15:57:46.384851,84
2021-12-27 15:57:46.384857,86
2021-12-27 15:57:46.384864,91
2021-12-27 15:57:46.384870,91
2021-12-27 15:57:46.384877,88
2021-12-27 15:57:46.384883,88
2021-12-27 15:57:46.384889,91
2021-12-27 15:57:46.384896,95
2021-12-27 15:57:46.384902,100
2021-12-27 15:57:46.677090,98
2021-12-27 15:57:46.677111,100
2021-12-27 15:57:46.677119,107
2021-12-27 15:57:46.677125,105
2021-12-27 15:57:46.677131,95
2021-12-27 15:57:46.677138,93
2021-12-27 15:57:46.677144,98
2021-12-27 15:57:46.677151,102
2021-12-27 15:57:46.677157,105
2021-12-27 15:57:46.677163,107
2021-12-27 15:57:46.677169,102
2021-12-27 15:57:46.677176,93
2021-12-27 15:57:46.677182,74
2021-12-27 15:57:46.677188,63
2021-12-27 15:57:46.677195,72
2021-12-27 15:57:46.677201,79
2021-12-27 15:57:46.677208,74
2021-12-27 15:57:46.677214,86
2021-12-27 15:57:46.677220,102
2021-12-27 15:57:46.677227,100
2021-12-27 15:57:46.677233,95
2021-12-27 15:57:46.677240,105
2021-12-27 15:57:46.677246,107
2021-12-27 15:57:46.677252,105
2021-12-27 15:57:46.677259,105
2021-12-27 15:57:46.677265,109
2021-12-27 15:57:46.677271,112
2021-12-27 15:57:46.677280,137
2021-12-27 15:57:46.677287,200
2021-12-27 15:57:46.677293,198
2021-12-27 15:57:46.872564,-93
2021-12-27 15:57:46.872594,-756
2021-12-27 15:57:46.872606,-1363
2021-12-27 15:57:46.872617,-1067
2021-12-27 15:57:46.872626,-21
2021-12-27 15:57:46.872636,406
2021-12-27 15:57:46.872646,112
2021-12-27 15:57:46.872656,98
2021-12-27 15:57:46.872666,273
2021-12-27 15:57:46.872676,212
2021-12-27 15:57:46.872686,156
2021-12-27 15:57:46.872695,200
2021-12-27 15:57:46.872705,179
2021-12-27 15:57:46.872715,140
2021-12-27 15:57:46.872725,144
2021-12-27 15:57:46.872734,135
2021-12-27 15:57:46.872744,109
2021-12-27 15:57:46.872755,100
2021-12-27 15:57:46.872764,93
2021-12-27 15:57:46.872785,74
2021-12-27 15:57:46.872795,60
2021-12-27 15:57:46.872805,49
2021-12-27 15:57:46.872815,39
2021-12-27 15:57:46.872824,35
2021-12-27 15:57:46.872834,28
2021-12-27 15:57:46.872844,16
2021-12-27 15:57:46.872854,14
2021-12-27 15:57:46.872863,25
2021-12-27 15:57:46.872873,37
2021-12-27 15:57:46.872883,42
2021-12-27 15:57:47.116696,51
2021-12-27 15:57:47.116718,63
2021-12-27 15:57:47.116725,70
2021-12-27 15:57:47.116732,79
2021-12-27 15:57:47.116738,91
2021-12-27 15:57:47.116744,100
2021-12-27 15:57:47.116751,105
2021-12-27 15:57:47.116757,107
2021-12-27 15:57:47.116763,109
2021-12-27 15:57:47.116769,112
2021-12-27 15:57:47.116776,119
2021-12-27 15:57:47.116782,119
2021-12-27 15:57:47.116789,112
2021-12-27 15:57:47.116795,105
2021-12-27 15:57:47.116801,100
2021-12-27 15:57:47.116807,93
2021-12-27 15:57:47.116813,88
2021-12-27 15:57:47.116820,88
2021-12-27 15:57:47.116826,81
2021-12-27 15:57:47.116832,79
2021-12-27 15:57:47.116838,86
2021-12-27 15:57:47.116845,91
2021-12-27 15:57:47.116851,88
2021-12-27 15:57:47.116857,91
2021-12-27 15:57:47.116863,93
2021-12-27 15:57:47.116870,88
2021-12-27 15:57:47.116876,88
2021-12-27 15:57:47.116882,88
2021-12-27 15:57:47.116888,93
2021-12-27 15:57:47.116895,102
2021-12-27 15:57:47.358721,107
2021-12-27 15:57:47.358738,105
2021-12-27 15:57:47.358744,102
2021-12-27 15:57:47.358750,102
2021-12-27 15:57:47.358755,102
2021-12-27 15:57:47.358760,105
2021-12-27 15:57:47.358765,107
2021-12-27 15:57:47.358770,105
2021-12-27 15:57:47.358775,102
2021-12-27 15:57:47.358781,102
2021-12-27 15:57:47.358786,98
2021-12-27 15:57:47.358791,81
2021-12-27 15:57:47.358796,63
2021-12-27 15:57:47.358801,58
2021-12-27 15:57:47.358806,70
2021-12-27 15:57:47.358812,67
2021-12-27 15:57:47.358817,70
2021-12-27 15:57:47.358822,88
2021-12-27 15:57:47.358827,98
2021-12-27 15:57:47.358832,91
2021-12-27 15:57:47.358837,93
2021-12-27 15:57:47.358843,93
2021-12-27 15:57:47.358848,88
2021-12-27 15:57:47.358853,88
2021-12-27 15:57:47.358858,88
2021-12-27 15:57:47.358863,88
2021-12-27 15:57:47.358868,95
2021-12-27 15:57:47.358873,123
2021-12-27 15:57:47.358878,186
2021-12-27 15:57:47.358884,182
2021-12-27 15:57:47.554532,-109
2021-12-27 15:57:47.554554,-766
2021-12-27 15:57:47.554560,-1317
2021-12-27 15:57:47.554565,-943
2021-12-27 15:57:47.554570,63
2021-12-27 15:57:47.554575,387
2021-12-27 15:57:47.554580,93
2021-12-27 15:57:47.554585,112
2021-12-27 15:57:47.554590,252
2021-12-27 15:57:47.554595,179
2021-12-27 15:57:47.554600,140
2021-12-27 15:57:47.554605,175
2021-12-27 15:57:47.554610,147
2021-12-27 15:57:47.554615,114
2021-12-27 15:57:47.554620,116
2021-12-27 15:57:47.554625,105
2021-12-27 15:57:47.554630,79
2021-12-27 15:57:47.554635,74
2021-12-27 15:57:47.554640,65
2021-12-27 15:57:47.554645,49
2021-12-27 15:57:47.554650,37
2021-12-27 15:57:47.554655,25
2021-12-27 15:57:47.554660,18
2021-12-27 15:57:47.554665,11
2021-12-27 15:57:47.554670,7
2021-12-27 15:57:47.554675,2
2021-12-27 15:57:47.554680,2
2021-12-27 15:57:47.554685,7
2021-12-27 15:57:47.554690,18
2021-12-27 15:57:47.554695,37
2021-12-27 15:57:47.845451,44
2021-12-27 15:57:47.845467,49
2021-12-27 15:57:47.845473,56
2021-12-27 15:57:47.845479,58
2021-12-27 15:57:47.845484,60
2021-12-27 15:57:47.845489,74
2021-12-27 15:57:47.845494,81
2021-12-27 15:57:47.845499,88
2021-12-27 15:57:47.845505,102
2021-12-27 15:57:47.845510,114
2021-12-27 15:57:47.845515,109
2021-12-27 15:57:47.845520,105
2021-12-27 15:57:47.845525,102
2021-12-27 15:57:47.845530,98
2021-12-27 15:57:47.845535,95
2021-12-27 15:57:47.845541,95
2021-12-27 15:57:47.845546,88
2021-12-27 15:57:47.845551,79
2021-12-27 15:57:47.845556,79
2021-12-27 15:57:47.845561,79
2021-12-27 15:57:47.845566,77
2021-12-27 15:57:47.845572,79
2021-12-27 15:57:47.845577,81
2021-12-27 15:57:47.845582,77
2021-12-27 15:57:47.845587,79
2021-12-27 15:57:47.845592,84
2021-12-27 15:57:47.845597,84
2021-12-27 15:57:47.845603,84
2021-12-27 15:57:47.845608,93
2021-12-27 15:57:47.845613,98
2021-12-27 15:57:47.993268,95
2021-12-27 15:57:47.993289,98
2021-12-27 15:57:47.993297,100
2021-12-27 15:57:47.993303,100
2021-12-27 15:57:47.993311,105
2021-12-27 15:57:47.993355,109
2021-12-27 15:57:47.993365,109
2021-12-27 15:57:47.993372,105
2021-12-27 15:57:47.993378,100
2021-12-27 15:57:47.993385,98
2021-12-27 15:57:47.993391,100
2021-12-27 15:57:47.993397,105
2021-12-27 15:57:47.993404,105
2021-12-27 15:57:47.993410,105
2021-12-27 15:57:47.993467,102
2021-12-27 15:57:47.993511,100
2021-12-27 15:57:47.993520,98
2021-12-27 15:57:47.993527,91
2021-12-27 15:57:47.993533,74
2021-12-27 15:57:47.993539,72
2021-12-27 15:57:47.993549,79
2021-12-27 15:57:47.993556,81
2021-12-27 15:57:47.993562,88
2021-12-27 15:57:47.993569,105
2021-12-27 15:57:47.993575,109
2021-12-27 15:57:47.993582,107
2021-12-27 15:57:47.993588,107
2021-12-27 15:57:47.993617,107
2021-12-27 15:57:47.993639,105
2021-12-27 15:57:47.993648,107
2021-12-27 15:57:48.237069,102
2021-12-27 15:57:48.237087,98
2021-12-27 15:57:48.237093,123
2021-12-27 15:57:48.237098,177
2021-12-27 15:57:48.237103,219
2021-12-27 15:57:48.237108,70
2021-12-27 15:57:48.237113,-476
2021-12-27 15:57:48.237118,-1261
2021-12-27 15:57:48.237122,-1483
2021-12-27 15:57:48.237127,-597
2021-12-27 15:57:48.237132,322
2021-12-27 15:57:48.237138,261
2021-12-27 15:57:48.237143,44
2021-12-27 15:57:48.237148,231
2021-12-27 15:57:48.237152,287
2021-12-27 15:57:48.237157,177
2021-12-27 15:57:48.237162,186
2021-12-27 15:57:48.237167,214
2021-12-27 15:57:48.237172,175
2021-12-27 15:57:48.237177,156
2021-12-27 15:57:48.237182,156
2021-12-27 15:57:48.237187,135
2021-12-27 15:57:48.237191,112
2021-12-27 15:57:48.237196,100
2021-12-27 15:57:48.237201,91
2021-12-27 15:57:48.237206,79
2021-12-27 15:57:48.237211,67
2021-12-27 15:57:48.237216,53
2021-12-27 15:57:48.237221,39
2021-12-27 15:57:48.237226,30
2021-12-27 15:57:48.480793,28
2021-12-27 15:57:48.480816,30
2021-12-27 15:57:48.480823,28
2021-12-27 15:57:48.480828,28
2021-12-27 15:57:48.480834,37
2021-12-27 15:57:48.480839,44
2021-12-27 15:57:48.480844,51
2021-12-27 15:57:48.480850,60
2021-12-27 15:57:48.480855,77
2021-12-27 15:57:48.480860,91
2021-12-27 15:57:48.480865,95
2021-12-27 15:57:48.480870,100
2021-12-27 15:57:48.480875,107
2021-12-27 15:57:48.480880,116
2021-12-27 15:57:48.480885,121
2021-12-27 15:57:48.480890,126
2021-12-27 15:57:48.480895,128
2021-12-27 15:57:48.480901,126
2021-12-27 15:57:48.480906,119
2021-12-27 15:57:48.480911,119
2021-12-27 15:57:48.480916,119
2021-12-27 15:57:48.480921,112
2021-12-27 15:57:48.480926,107
2021-12-27 15:57:48.480931,105
2021-12-27 15:57:48.480936,100
2021-12-27 15:57:48.480955,100
2021-12-27 15:57:48.480964,102
2021-12-27 15:57:48.480972,105
2021-12-27 15:57:48.480981,105
2021-12-27 15:57:48.480990,100
2021-12-27 15:57:48.724198,98
2021-12-27 15:57:48.724212,102
2021-12-27 15:57:48.724217,105
2021-12-27 15:57:48.724222,100
2021-12-27 15:57:48.724226,105
2021-12-27 15:57:48.724231,112
2021-12-27 15:57:48.724235,109
2021-12-27 15:57:48.724239,105
2021-12-27 15:57:48.724244,105
2021-12-27 15:57:48.724248,109
2021-12-27 15:57:48.724252,109
2021-12-27 15:57:48.724257,112
2021-12-27 15:57:48.724291,109
2021-12-27 15:57:48.724303,105
2021-12-27 15:57:48.724311,105
2021-12-27 15:57:48.724318,107
2021-12-27 15:57:48.724325,107
2021-12-27 15:57:48.724332,107
2021-12-27 15:57:48.724340,112
2021-12-27 15:57:48.724347,114
2021-12-27 15:57:48.724355,109
2021-12-27 15:57:48.724394,95
2021-12-27 15:57:48.724403,74
2021-12-27 15:57:48.724412,70
2021-12-27 15:57:48.724420,81
2021-12-27 15:57:48.724428,86
2021-12-27 15:57:48.724460,86
2021-12-27 15:57:48.724470,93
2021-12-27 15:57:48.724478,93
2021-12-27 15:57:48.724486,93
2021-12-27 15:57:49.017155,95
2021-12-27 15:57:49.017192,93
2021-12-27 15:57:49.017200,93
2021-12-27 15:57:49.017206,95
2021-12-27 15:57:49.017212,91
2021-12-27 15:57:49.017217,93
2021-12-27 15:57:49.017222,109
2021-12-27 15:57:49.017227,158
2021-12-27 15:57:49.017231,210
2021-12-27 15:57:49.017236,60
2021-12-27 15:57:49.017241,-483
2021-12-27 15:57:49.017246,-1237
2021-12-27 15:57:49.017251,-1413
2021-12-27 15:57:49.017256,-544
2021-12-27 15:57:49.017261,301
2021-12-27 15:57:49.017265,224
2021-12-27 15:57:49.017270,35
2021-12-27 15:57:49.017275,212
2021-12-27 15:57:49.017280,254
2021-12-27 15:57:49.017285,156
2021-12-27 15:57:49.017290,172
2021-12-27 15:57:49.017295,189
2021-12-27 15:57:49.017317,147
2021-12-27 15:57:49.017335,130
2021-12-27 15:57:49.017342,135
2021-12-27 15:57:49.017347,119
2021-12-27 15:57:49.017352,102
2021-12-27 15:57:49.017357,93
2021-12-27 15:57:49.017362,84
2021-12-27 15:57:49.017367,72
2021-12-27 15:57:49.211890,60
2021-12-27 15:57:49.211913,51
2021-12-27 15:57:49.211923,46
2021-12-27 15:57:49.211932,37
2021-12-27 15:57:49.211941,25
2021-12-27 15:57:49.211950,21
2021-12-27 15:57:49.211958,23
2021-12-27 15:57:49.211967,25
2021-12-27 15:57:49.211975,30
2021-12-27 15:57:49.211984,44
2021-12-27 15:57:49.211993,53
2021-12-27 15:57:49.212002,63
2021-12-27 15:57:49.212011,79
2021-12-27 15:57:49.212020,93
2021-12-27 15:57:49.212028,107
2021-12-27 15:57:49.212037,119
2021-12-27 15:57:49.212046,123
2021-12-27 15:57:49.212055,128
2021-12-27 15:57:49.212063,135
2021-12-27 15:57:49.212068,142
2021-12-27 15:57:49.212072,147
2021-12-27 15:57:49.212077,149
2021-12-27 15:57:49.212082,137
2021-12-27 15:57:49.212087,128
2021-12-27 15:57:49.212092,126
2021-12-27 15:57:49.212097,123
2021-12-27 15:57:49.212102,112
2021-12-27 15:57:49.212107,112
2021-12-27 15:57:49.212111,114
2021-12-27 15:57:49.212116,107
2021-12-27 15:57:49.455497,105
2021-12-27 15:57:49.455512,112
2021-12-27 15:57:49.455517,107
2021-12-27 15:57:49.455522,95
2021-12-27 15:57:49.455526,95
2021-12-27 15:57:49.455531,100
2021-12-27 15:57:49.455535,95
2021-12-27 15:57:49.455540,95
2021-12-27 15:57:49.455544,100
2021-12-27 15:57:49.455549,100
2021-12-27 15:57:49.455553,105
2021-12-27 15:57:49.455557,105
2021-12-27 15:57:49.455562,100
2021-12-27 15:57:49.455566,100
2021-12-27 15:57:49.455571,102
2021-12-27 15:57:49.455575,100
2021-12-27 15:57:49.455580,98
2021-12-27 15:57:49.455584,100
2021-12-27 15:57:49.455588,98
2021-12-27 15:57:49.455593,95
2021-12-27 15:57:49.455597,98
2021-12-27 15:57:49.455602,100
2021-12-27 15:57:49.455606,100
2021-12-27 15:57:49.455610,105
2021-12-27 15:57:49.455615,107
2021-12-27 15:57:49.455619,105
2021-12-27 15:57:49.455623,91
2021-12-27 15:57:49.455628,67
2021-12-27 15:57:49.455632,58
2021-12-27 15:57:49.455637,70
2021-12-27 15:57:49.748208,77
2021-12-27 15:57:49.748227,77
2021-12-27 15:57:49.748235,91
2021-12-27 15:57:49.748242,98
2021-12-27 15:57:49.748248,93
2021-12-27 15:57:49.748255,93
2021-12-27 15:57:49.748261,95
2021-12-27 15:57:49.748267,91
2021-12-27 15:57:49.748274,86
2021-12-27 15:57:49.748280,86
2021-12-27 15:57:49.748287,86
2021-12-27 15:57:49.748293,98
2021-12-27 15:57:49.748299,147
2021-12-27 15:57:49.748306,200
2021-12-27 15:57:49.748312,84
2021-12-27 15:57:49.748319,-385
2021-12-27 15:57:49.748325,-1072
2021-12-27 15:57:49.748332,-1317
2021-12-27 15:57:49.748338,-586
2021-12-27 15:57:49.748344,263
2021-12-27 15:57:49.748351,249
2021-12-27 15:57:49.748357,35
2021-12-27 15:57:49.748363,179
2021-12-27 15:57:49.748370,245
2021-12-27 15:57:49.748376,158
2021-12-27 15:57:49.748382,161
2021-12-27 15:57:49.748389,179
2021-12-27 15:57:49.748395,144
2021-12-27 15:57:49.748402,128
2021-12-27 15:57:49.748408,133
2021-12-27 15:57:49.892942,116
2021-12-27 15:57:49.892957,102
2021-12-27 15:57:49.892964,95
2021-12-27 15:57:49.892969,84
2021-12-27 15:57:49.892974,72
2021-12-27 15:57:49.892989,65
2021-12-27 15:57:49.892994,53
2021-12-27 15:57:49.893000,39
2021-12-27 15:57:49.893005,30
2021-12-27 15:57:49.893010,23
2021-12-27 15:57:49.893015,16
2021-12-27 15:57:49.893021,18
2021-12-27 15:57:49.893026,18
2021-12-27 15:57:49.893031,25
2021-12-27 15:57:49.893036,39
2021-12-27 15:57:49.893042,49
2021-12-27 15:57:49.893047,53
2021-12-27 15:57:49.893052,63
2021-12-27 15:57:49.893057,74
2021-12-27 15:57:49.893062,91
2021-12-27 15:57:49.893068,102
2021-12-27 15:57:49.893073,107
2021-12-27 15:57:49.893078,109
2021-12-27 15:57:49.893083,121
2021-12-27 15:57:49.893088,135
2021-12-27 15:57:49.893094,140
2021-12-27 15:57:49.893099,135
2021-12-27 15:57:49.893104,126
2021-12-27 15:57:49.893109,119
2021-12-27 15:57:49.893115,116
2021-12-27 15:57:50.138039,112
2021-12-27 15:57:50.138055,105
2021-12-27 15:57:50.138061,102
2021-12-27 15:57:50.138066,100
2021-12-27 15:57:50.138071,95
2021-12-27 15:57:50.138076,91
2021-12-27 15:57:50.138081,91
2021-12-27 15:57:50.138086,93
2021-12-27 15:57:50.138092,93
2021-12-27 15:57:50.138097,93
2021-12-27 15:57:50.138102,91
2021-12-27 15:57:50.138107,88
2021-12-27 15:57:50.138112,86
2021-12-27 15:57:50.138117,86
2021-12-27 15:57:50.138122,88
2021-12-27 15:57:50.138128,93
2021-12-27 15:57:50.138133,93
2021-12-27 15:57:50.138138,95
2021-12-27 15:57:50.138143,93
2021-12-27 15:57:50.138148,93
2021-12-27 15:57:50.138153,95
2021-12-27 15:57:50.138158,91
2021-12-27 15:57:50.138164,86
2021-12-27 15:57:50.138169,86
2021-12-27 15:57:50.138174,84
2021-12-27 15:57:50.138179,81
2021-12-27 15:57:50.138184,84
2021-12-27 15:57:50.138189,88
2021-12-27 15:57:50.138194,86
2021-12-27 15:57:50.138199,86
2021-12-27 15:57:50.334028,88
2021-12-27 15:57:50.334043,84
2021-12-27 15:57:50.334048,65
2021-12-27 15:57:50.334053,49
2021-12-27 15:57:50.334057,46
2021-12-27 15:57:50.334062,56
2021-12-27 15:57:50.334066,56
2021-12-27 15:57:50.334071,63
2021-12-27 15:57:50.334075,79
2021-12-27 15:57:50.334079,84
2021-12-27 15:57:50.334084,79
2021-12-27 15:57:50.334088,81
2021-12-27 15:57:50.334093,81
2021-12-27 15:57:50.334097,77
2021-12-27 15:57:50.334101,70
2021-12-27 15:57:50.334106,63
2021-12-27 15:57:50.334110,67
2021-12-27 15:57:50.334114,95
2021-12-27 15:57:50.334119,149
2021-12-27 15:57:50.334123,156
2021-12-27 15:57:50.334128,-63
2021-12-27 15:57:50.334132,-628
2021-12-27 15:57:50.334137,-1237
2021-12-27 15:57:50.334141,-1111
2021-12-27 15:57:50.334145,-191
2021-12-27 15:57:50.334150,331
2021-12-27 15:57:50.334154,123
2021-12-27 15:57:50.334159,65
2021-12-27 15:57:50.334163,226
2021-12-27 15:57:50.334168,198
2021-12-27 15:57:50.577377,140
2021-12-27 15:57:50.577400,170
2021-12-27 15:57:50.577410,163
2021-12-27 15:57:50.577419,126
2021-12-27 15:57:50.577428,128
2021-12-27 15:57:50.577437,128
2021-12-27 15:57:50.577446,109
2021-12-27 15:57:50.577455,91
2021-12-27 15:57:50.577464,77
2021-12-27 15:57:50.577473,65
2021-12-27 15:57:50.577481,60
2021-12-27 15:57:50.577490,53
2021-12-27 15:57:50.577499,44
2021-12-27 15:57:50.577508,37
2021-12-27 15:57:50.577517,28
2021-12-27 15:57:50.577526,16
2021-12-27 15:57:50.577535,11
2021-12-27 15:57:50.577544,16
2021-12-27 15:57:50.577553,23
2021-12-27 15:57:50.577562,30
2021-12-27 15:57:50.577571,32
2021-12-27 15:57:50.577580,42
2021-12-27 15:57:50.577588,53
2021-12-27 15:57:50.577597,67
2021-12-27 15:57:50.577606,81
2021-12-27 15:57:50.577615,91
2021-12-27 15:57:50.577624,95
2021-12-27 15:57:50.577633,107
2021-12-27 15:57:50.577642,121
2021-12-27 15:57:50.577651,133
2021-12-27 15:57:50.771878,137
2021-12-27 15:57:50.771895,140
2021-12-27 15:57:50.771901,133
2021-12-27 15:57:50.771906,123
2021-12-27 15:57:50.771911,123
2021-12-27 15:57:50.771916,116
2021-12-27 15:57:50.771921,112
2021-12-27 15:57:50.771926,109
2021-12-27 15:57:50.771932,105
2021-12-27 15:57:50.771937,100
2021-12-27 15:57:50.771942,102
2021-12-27 15:57:50.771947,100
2021-12-27 15:57:50.771952,93
2021-12-27 15:57:50.771957,95
2021-12-27 15:57:50.771962,98
2021-12-27 15:57:50.771967,93
2021-12-27 15:57:50.771972,91
2021-12-27 15:57:50.771977,98
2021-12-27 15:57:50.771982,95
2021-12-27 15:57:50.771988,93
2021-12-27 15:57:50.771993,95
2021-12-27 15:57:50.771998,93
2021-12-27 15:57:50.772003,88
2021-12-27 15:57:50.772008,91
2021-12-27 15:57:50.772013,86
2021-12-27 15:57:50.772018,86
2021-12-27 15:57:50.772023,98
2021-12-27 15:57:50.772028,91
2021-12-27 15:57:50.772033,77
2021-12-27 15:57:50.772038,86
2021-12-27 15:57:51.015595,98
2021-12-27 15:57:51.015610,93
2021-12-27 15:57:51.015616,86
2021-12-27 15:57:51.015620,93
2021-12-27 15:57:51.015625,86
2021-12-27 15:57:51.015629,51
2021-12-27 15:57:51.015634,37
2021-12-27 15:57:51.015638,63
2021-12-27 15:57:51.015642,74
2021-12-27 15:57:51.015647,74
2021-12-27 15:57:51.015651,93
2021-12-27 15:57:51.015656,95
2021-12-27 15:57:51.015660,77
2021-12-27 15:57:51.015664,72
2021-12-27 15:57:51.015669,84
2021-12-27 15:57:51.015673,86
2021-12-27 15:57:51.015678,91
2021-12-27 15:57:51.015682,102
2021-12-27 15:57:51.015686,95
2021-12-27 15:57:51.015691,100
2021-12-27 15:57:51.015695,158
2021-12-27 15:57:51.015700,203
2021-12-27 15:57:51.015704,4
2021-12-27 15:57:51.015709,-551
2021-12-27 15:57:51.015713,-1188
2021-12-27 15:57:51.015717,-1172
2021-12-27 15:57:51.015722,-294
2021-12-27 15:57:51.015726,324
2021-12-27 15:57:51.015731,165
2021-12-27 15:57:51.015735,77
2021-12-27 15:57:51.259509,254
2021-12-27 15:57:51.259526,242
2021-12-27 15:57:51.259532,144
2021-12-27 15:57:51.259537,158
2021-12-27 15:57:51.259542,177
2021-12-27 15:57:51.259547,149
2021-12-27 15:57:51.259552,137
2021-12-27 15:57:51.259558,144
2021-12-27 15:57:51.259563,130
2021-12-27 15:57:51.259568,98
2021-12-27 15:57:51.259573,91
2021-12-27 15:57:51.259578,91
2021-12-27 15:57:51.259583,74
2021-12-27 15:57:51.259588,60
2021-12-27 15:57:51.259593,49
2021-12-27 15:57:51.259598,37
2021-12-27 15:57:51.259604,39
2021-12-27 15:57:51.259609,39
2021-12-27 15:57:51.259616,32
2021-12-27 15:57:51.259621,28
2021-12-27 15:57:51.259626,37
2021-12-27 15:57:51.259632,44
2021-12-27 15:57:51.259637,39
2021-12-27 15:57:51.259642,53
2021-12-27 15:57:51.259647,72
2021-12-27 15:57:51.259652,67
2021-12-27 15:57:51.259657,72
2021-12-27 15:57:51.259662,105
2021-12-27 15:57:51.259667,109
2021-12-27 15:57:51.259672,100
2021-12-27 15:57:51.454391,128
2021-12-27 15:57:51.454407,142
2021-12-27 15:57:51.454414,133
2021-12-27 15:57:51.454419,140
2021-12-27 15:57:51.454425,140
2021-12-27 15:57:51.454430,126
2021-12-27 15:57:51.454435,123
2021-12-27 15:57:51.454441,121
2021-12-27 15:57:51.454446,105
2021-12-27 15:57:51.454451,95
2021-12-27 15:57:51.454456,112
2021-12-27 15:57:51.454461,119
2021-12-27 15:57:51.454466,107
2021-12-27 15:57:51.454471,98
2021-12-27 15:57:51.454476,86
2021-12-27 15:57:51.454482,93
2021-12-27 15:57:51.454487,112
2021-12-27 15:57:51.454492,105
2021-12-27 15:57:51.454497,93
2021-12-27 15:57:51.454503,105
2021-12-27 15:57:51.454508,105
2021-12-27 15:57:51.454513,98
2021-12-27 15:57:51.454518,102
2021-12-27 15:57:51.454523,100
2021-12-27 15:57:51.454528,88
2021-12-27 15:57:51.454533,91
2021-12-27 15:57:51.454539,91
2021-12-27 15:57:51.454544,84
2021-12-27 15:57:51.454549,86
2021-12-27 15:57:51.454554,95
2021-12-27 15:57:51.698211,105
2021-12-27 15:57:51.698227,112
2021-12-27 15:57:51.698233,86
2021-12-27 15:57:51.698238,49
2021-12-27 15:57:51.698244,49
2021-12-27 15:57:51.698249,58
2021-12-27 15:57:51.698254,51
2021-12-27 15:57:51.698259,63
2021-12-27 15:57:51.698264,86
2021-12-27 15:57:51.698269,91
2021-12-27 15:57:51.698274,91
2021-12-27 15:57:51.698279,95
2021-12-27 15:57:51.698284,88
2021-12-27 15:57:51.698289,74
2021-12-27 15:57:51.698294,84
2021-12-27 15:57:51.698299,93
2021-12-27 15:57:51.698304,81
2021-12-27 15:57:51.698310,86
2021-12-27 15:57:51.698315,116
2021-12-27 15:57:51.698320,163
2021-12-27 15:57:51.698325,161
2021-12-27 15:57:51.698330,-84
2021-12-27 15:57:51.698335,-663
2021-12-27 15:57:51.698340,-1233
2021-12-27 15:57:51.698345,-1044
2021-12-27 15:57:51.698351,-142
2021-12-27 15:57:51.698356,310
2021-12-27 15:57:51.698361,116
2021-12-27 15:57:51.698366,95
2021-12-27 15:57:51.698371,231
2021-12-27 15:57:52.038782,198
2021-12-27 15:57:52.038811,158
2021-12-27 15:57:52.038823,182
2021-12-27 15:57:52.038832,158
2021-12-27 15:57:52.038842,130
2021-12-27 15:57:52.038852,126
2021-12-27 15:57:52.038862,105
2021-12-27 15:57:52.038871,95
2021-12-27 15:57:52.038881,95
2021-12-27 15:57:52.038891,81
2021-12-27 15:57:52.038900,67
2021-12-27 15:57:52.038910,63
2021-12-27 15:57:52.038920,53
2021-12-27 15:57:52.038929,39
2021-12-27 15:57:52.038939,30
2021-12-27 15:57:52.038949,30
2021-12-27 15:57:52.038958,16
2021-12-27 15:57:52.038968,2
2021-12-27 15:57:52.038977,16
2021-12-27 15:57:52.038987,32
2021-12-27 15:57:52.038997,28
2021-12-27 15:57:52.039006,32
2021-12-27 15:57:52.039016,53
2021-12-27 15:57:52.039026,60
2021-12-27 15:57:52.039035,65
2021-12-27 15:57:52.039045,84
2021-12-27 15:57:52.039055,98
2021-12-27 15:57:52.039064,102
2021-12-27 15:57:52.039074,112
2021-12-27 15:57:52.039084,123
2021-12-27 15:57:52.235177,133
2021-12-27 15:57:52.235206,142
2021-12-27 15:57:52.235218,137
2021-12-27 15:57:52.235228,126
2021-12-27 15:57:52.235238,126
2021-12-27 15:57:52.235247,126
2021-12-27 15:57:52.235257,121
2021-12-27 15:57:52.235267,119
2021-12-27 15:57:52.235277,123
2021-12-27 15:57:52.235286,109
2021-12-27 15:57:52.235296,93
2021-12-27 15:57:52.235306,100
2021-12-27 15:57:52.235316,100
2021-12-27 15:57:52.235325,86
2021-12-27 15:57:52.235335,88
2021-12-27 15:57:52.235344,100
2021-12-27 15:57:52.235354,102
2021-12-27 15:57:52.235364,98
2021-12-27 15:57:52.235374,100
2021-12-27 15:57:52.235383,105
2021-12-27 15:57:52.235393,102
2021-12-27 15:57:52.235403,102
2021-12-27 15:57:52.235413,105
2021-12-27 15:57:52.235422,105
2021-12-27 15:57:52.235432,105
2021-12-27 15:57:52.235442,107
2021-12-27 15:57:52.235451,102
2021-12-27 15:57:52.235461,100
2021-12-27 15:57:52.235471,109
2021-12-27 15:57:52.235481,100
2021-12-27 15:57:52.381984,79
2021-12-27 15:57:52.382056,67
2021-12-27 15:57:52.382065,53
2021-12-27 15:57:52.382075,39
2021-12-27 15:57:52.382129,53
2021-12-27 15:57:52.382136,74
2021-12-27 15:57:52.382143,79
2021-12-27 15:57:52.382150,77
2021-12-27 15:57:52.382206,72
2021-12-27 15:57:52.382213,70
2021-12-27 15:57:52.382220,72
2021-12-27 15:57:52.382226,77
2021-12-27 15:57:52.382282,77
2021-12-27 15:57:52.382290,84
2021-12-27 15:57:52.382297,84
2021-12-27 15:57:52.382304,77
2021-12-27 15:57:52.382356,98
2021-12-27 15:57:52.382365,151
2021-12-27 15:57:52.382372,151
2021-12-27 15:57:52.382378,-74
2021-12-27 15:57:52.382431,-628
2021-12-27 15:57:52.382441,-1195
2021-12-27 15:57:52.382448,-1030
2021-12-27 15:57:52.382455,-154
2021-12-27 15:57:52.382463,296
2021-12-27 15:57:52.382515,107
2021-12-27 15:57:52.382522,81
2021-12-27 15:57:52.382529,224
2021-12-27 15:57:52.382535,196
2021-12-27 15:57:52.382586,144
2021-12-27 15:57:52.625882,168
2021-12-27 15:57:52.625903,158
2021-12-27 15:57:52.625910,121
2021-12-27 15:57:52.625917,114
2021-12-27 15:57:52.625923,109
2021-12-27 15:57:52.625929,93
2021-12-27 15:57:52.625936,84
2021-12-27 15:57:52.625942,79
2021-12-27 15:57:52.625948,72
2021-12-27 15:57:52.625955,63
2021-12-27 15:57:52.625961,49
2021-12-27 15:57:52.625968,32
2021-12-27 15:57:52.625974,25
2021-12-27 15:57:52.625980,25
2021-12-27 15:57:52.625987,21
2021-12-27 15:57:52.625993,16
2021-12-27 15:57:52.625999,14
2021-12-27 15:57:52.626006,18
2021-12-27 15:57:52.626012,23
2021-12-27 15:57:52.626018,30
2021-12-27 15:57:52.626025,42
2021-12-27 15:57:52.626031,53
2021-12-27 15:57:52.626037,63
2021-12-27 15:57:52.626044,72
2021-12-27 15:57:52.626050,86
2021-12-27 15:57:52.626056,102
2021-12-27 15:57:52.626063,116
2021-12-27 15:57:52.626069,130
2021-12-27 15:57:52.626076,140
2021-12-27 15:57:52.626082,144
2021-12-27 15:57:52.869083,144
2021-12-27 15:57:52.869105,144
2021-12-27 15:57:52.869113,140
2021-12-27 15:57:52.869119,133
2021-12-27 15:57:52.869126,121
2021-12-27 15:57:52.869132,109
2021-12-27 15:57:52.869139,105
2021-12-27 15:57:52.869145,112
2021-12-27 15:57:52.869151,112
2021-12-27 15:57:52.869157,109
2021-12-27 15:57:52.869164,114
2021-12-27 15:57:52.869170,112
2021-12-27 15:57:52.869177,107
2021-12-27 15:57:52.869183,105
2021-12-27 15:57:52.869189,98
2021-12-27 15:57:52.869196,93
2021-12-27 15:57:52.869202,100
2021-12-27 15:57:52.869209,105
2021-12-27 15:57:52.869215,100
2021-12-27 15:57:52.869221,98
2021-12-27 15:57:52.869228,105
2021-12-27 15:57:52.869234,107
2021-12-27 15:57:52.869240,109
2021-12-27 15:57:52.869247,112
2021-12-27 15:57:52.869253,112
2021-12-27 15:57:52.869259,109
2021-12-27 15:57:52.869265,98
2021-12-27 15:57:52.869272,72
2021-12-27 15:57:52.869278,58
2021-12-27 15:57:52.869285,72
2021-12-27 15:57:53.112806,88
2021-12-27 15:57:53.112826,88
2021-12-27 15:57:53.112834,95
2021-12-27 15:57:53.112841,107
2021-12-27 15:57:53.112847,107
2021-12-27 15:57:53.112853,105
2021-12-27 15:57:53.112860,100
2021-12-27 15:57:53.112866,91
2021-12-27 15:57:53.112952,88
2021-12-27 15:57:53.112959,91
2021-12-27 15:57:53.112966,86
2021-12-27 15:57:53.112972,95
2021-12-27 15:57:53.112979,137
2021-12-27 15:57:53.112985,175
2021-12-27 15:57:53.112991,84
2021-12-27 15:57:53.112998,-280
2021-12-27 15:57:53.113004,-882
2021-12-27 15:57:53.113011,-1198
2021-12-27 15:57:53.113017,-639
2021-12-27 15:57:53.113024,165
2021-12-27 15:57:53.113030,252
2021-12-27 15:57:53.113036,60
2021-12-27 15:57:53.113043,156
2021-12-27 15:57:53.113049,231
2021-12-27 15:57:53.113055,170
2021-12-27 15:57:53.113062,165
2021-12-27 15:57:53.113068,182
2021-12-27 15:57:53.113074,149
2021-12-27 15:57:53.113081,128
2021-12-27 15:57:53.113087,133
2021-12-27 15:57:53.308609,130
2021-12-27 15:57:53.308628,116
2021-12-27 15:57:53.308635,95
2021-12-27 15:57:53.308642,72
2021-12-27 15:57:53.308649,72
2021-12-27 15:57:53.308655,72
2021-12-27 15:57:53.308661,58
2021-12-27 15:57:53.308668,44
2021-12-27 15:57:53.308674,35
2021-12-27 15:57:53.308681,23
2021-12-27 15:57:53.308687,18
2021-12-27 15:57:53.308693,25
2021-12-27 15:57:53.308700,25
2021-12-27 15:57:53.308706,23
2021-12-27 15:57:53.308712,32
2021-12-27 15:57:53.308719,39
2021-12-27 15:57:53.308725,42
2021-12-27 15:57:53.308731,46
2021-12-27 15:57:53.308738,53
2021-12-27 15:57:53.308744,67
2021-12-27 15:57:53.308751,81
2021-12-27 15:57:53.308757,98
2021-12-27 15:57:53.308763,114
2021-12-27 15:57:53.308770,128
2021-12-27 15:57:53.308776,128
2021-12-27 15:57:53.308783,128
2021-12-27 15:57:53.308789,128
2021-12-27 15:57:53.308795,123
2021-12-27 15:57:53.308802,121
2021-12-27 15:57:53.308808,123
2021-12-27 15:57:53.600436,114
2021-12-27 15:57:53.600531,109
2021-12-27 15:57:53.600554,116
2021-12-27 15:57:53.600565,114
2021-12-27 15:57:53.600576,107
2021-12-27 15:57:53.600585,109
2021-12-27 15:57:53.600595,109
2021-12-27 15:57:53.600605,109
2021-12-27 15:57:53.600615,114
2021-12-27 15:57:53.600624,114
2021-12-27 15:57:53.600634,109
2021-12-27 15:57:53.600644,107
2021-12-27 15:57:53.600653,109
2021-12-27 15:57:53.600663,114
2021-12-27 15:57:53.600673,112
2021-12-27 15:57:53.600683,105
2021-12-27 15:57:53.600692,107
2021-12-27 15:57:53.600702,116
2021-12-27 15:57:53.600712,119
2021-12-27 15:57:53.600721,112
2021-12-27 15:57:53.600731,95
2021-12-27 15:57:53.600741,72
2021-12-27 15:57:53.600751,70
2021-12-27 15:57:53.600760,81
2021-12-27 15:57:53.600770,81
2021-12-27 15:57:53.600780,93
2021-12-27 15:57:53.600789,109
2021-12-27 15:57:53.600799,102
2021-12-27 15:57:53.600809,102
2021-12-27 15:57:53.600818,116
2021-12-27 15:57:53.844622,119
2021-12-27 15:57:53.844653,123
2021-12-27 15:57:53.844664,133
2021-12-27 15:57:53.844675,121
2021-12-27 15:57:53.844684,100
2021-12-27 15:57:53.844694,102
2021-12-27 15:57:53.844703,137
2021-12-27 15:57:53.844713,172
2021-12-27 15:57:53.844722,67
2021-12-27 15:57:53.844732,-333
2021-12-27 15:57:53.844742,-945
2021-12-27 15:57:53.844752,-1177
2021-12-27 15:57:53.844761,-534
2021-12-27 15:57:53.844771,219
2021-12-27 15:57:53.844781,226
2021-12-27 15:57:53.844790,58
2021-12-27 15:57:53.844800,186
2021-12-27 15:57:53.844810,238
2021-12-27 15:57:53.844819,168
2021-12-27 15:57:53.844829,170
2021-12-27 15:57:53.844838,175
2021-12-27 15:57:53.844848,144
2021-12-27 15:57:53.844858,135
2021-12-27 15:57:53.844867,137
2021-12-27 15:57:53.844877,116
2021-12-27 15:57:53.844886,93
2021-12-27 15:57:53.844896,88
2021-12-27 15:57:53.844906,77
2021-12-27 15:57:53.844916,53
2021-12-27 15:57:53.844925,51
2021-12-27 15:57:54.086713,46
2021-12-27 15:57:54.086743,39
2021-12-27 15:57:54.086754,39
2021-12-27 15:57:54.086764,25
2021-12-27 15:57:54.086774,9
2021-12-27 15:57:54.086784,21
2021-12-27 15:57:54.086794,35
2021-12-27 15:57:54.086804,28
2021-12-27 15:57:54.086813,28
2021-12-27 15:57:54.086823,32
2021-12-27 15:57:54.086833,25
2021-12-27 15:57:54.086843,30
2021-12-27 15:57:54.086853,63
2021-12-27 15:57:54.086862,100
2021-12-27 15:57:54.086872,109
2021-12-27 15:57:54.086882,102
2021-12-27 15:57:54.086892,107
2021-12-27 15:57:54.086901,119
2021-12-27 15:57:54.086911,140
2021-12-27 15:57:54.086921,149
2021-12-27 15:57:54.086931,137
2021-12-27 15:57:54.086941,123
2021-12-27 15:57:54.086950,123
2021-12-27 15:57:54.086960,133
2021-12-27 15:57:54.086970,126
2021-12-27 15:57:54.086979,112
2021-12-27 15:57:54.086989,105
2021-12-27 15:57:54.086999,98
2021-12-27 15:57:54.087009,107
2021-12-27 15:57:54.087018,126
2021-12-27 15:57:54.331098,128
2021-12-27 15:57:54.331128,135
2021-12-27 15:57:54.331140,144
2021-12-27 15:57:54.331150,112
2021-12-27 15:57:54.331160,91
2021-12-27 15:57:54.331170,114
2021-12-27 15:57:54.331179,126
2021-12-27 15:57:54.331189,121
2021-12-27 15:57:54.331199,112
2021-12-27 15:57:54.331209,112
2021-12-27 15:57:54.331219,130
2021-12-27 15:57:54.331229,133
2021-12-27 15:57:54.331239,116
2021-12-27 15:57:54.331248,109
2021-12-27 15:57:54.331258,86
2021-12-27 15:57:54.331268,63
2021-12-27 15:57:54.331278,81
2021-12-27 15:57:54.331288,105
2021-12-27 15:57:54.331297,105
2021-12-27 15:57:54.331307,102
2021-12-27 15:57:54.331317,112
2021-12-27 15:57:54.331327,121
